time,ecg
1713642990794195000,"[14374, 14809, 15223, 15616, 15978, 16300, 16576, 16851, 17145, 17363, 17490, 17620, 17761, 17867, 17980, 18086, 18142, 18220, 18330, 18415, 18499, 18563, 18570, 18603, 18657, 18673, 18713, 18772, 18718, 18608, 18603, 18622, 18584, 18525, 18450, 18401, 18387, 18323, 18205, 18104, 18010, 17919, 17834, 17752, 17672, 17547, 17406, 17312, 17213, 17098, 16999, 16863, 16707, 16592, 16482, 16362, 16242, 16089, 15934, 15811, 15689, 15562, 15433, 15273, 15113, 14983, 14852, 14713, 14605, 14459, 14254, 14108, 14003]"
1713642991355324379,"[13864, 13716, 13577, 13431, 13274, 13137, 13029, 12900, 12735, 12552, 12396, 12286, 12142, 11945, 11771, 11648, 11524, 11394, 11270, 11138, 11016, 11039, 11357, 11679, 11345, 10369, 9849, 10075, 10042, 9694, 9616, 9588, 9412, 9289, 9228, 9120, 9000, 8901, 8800, 8692, 8600, 8513, 8412, 8313, 8224, 8132, 8055, 7984, 7902, 7829, 7758, 7681, 7606, 7526, 7420, 7312, 7187, 7034, 6883, 6752, 6613, 6472, 6361, 6270, 6185, 6103, 6020, 5945, 5872, 5795, 5726, 5656, 5573]"
1713642991916453758,"[5508, 5444, 5371, 5308, 5240, 5167, 5105, 5040, 4971, 4910, 4828, 4743, 4696, 4637, 4539, 4459, 4409, 4358, 4299, 4235, 4162, 4108, 4061, 4007, 3960, 3911, 3859, 3810, 3760, 3715, 3671, 3621, 3574, 3530, 3483, 3440, 3403, 3356, 3309, 3266, 3222, 3184, 3146, 3104, 3057, 3017, 2979, 2946, 2911, 2869, 2824, 2765, 2716, 2688, 2655, 2605, 2556, 2523, 2483, 2438, 2410, 2382, 2347, 2330, 2321, 2290, 2241, 2191, 2151, 2123, 2107, 2086, 2057]"
1713642992477583137,"[2029, 2003, 1977, 1947, 1926, 2057, 2460, 2878, 2772, 1987, 1411, 1627, 1780, 1545, 1509, 1603, 1556, 1519, 1540, 1521, 1498, 1507, 1507, 1491, 1476, 1469, 1469, 1469, 1469, 1469, 1462, 1462, 1481, 1495, 1509, 1521, 1516, 1507, 1500, 1481, 1441, 1378, 1293, 1208, 1152, 1110, 1070, 1044, 1023, 1001, 997, 999, 992, 978, 966, 964, 968, 964, 957, 952, 938, 928, 931, 928, 919, 907, 893, 886, 886, 881, 872, 856, 825]"
1713642993038712516,"[790, 766, 759, 762, 747, 731, 731, 736, 731, 717, 691, 667, 670, 674, 660, 644, 635, 627, 623, 618, 604, 590, 571, 557, 557, 557, 552, 550, 543, 536, 538, 540, 538, 526, 512, 510, 526, 545, 550, 533, 503, 486, 489, 493, 491, 486, 482, 482, 484, 484, 472, 498, 745, 1232, 1566, 1211, 369, 119, 479, 489, 303, 381, 435, 373, 376, 383, 336, 333, 364, 362, 362, 381, 392]"
1713642993599841895,"[402, 411, 420, 437, 453, 475, 498, 508, 512, 538, 557, 559, 559, 540, 496, 437, 373, 317, 275, 239, 218, 211, 206, 202, 192, 183, 192, 204, 204, 209, 218, 223, 230, 237, 239, 244, 246, 249, 254, 258, 258, 258, 261, 258, 261, 263, 258, 258, 258, 256, 261, 263, 258, 258, 258, 254, 244, 232, 211, 190, 190, 202, 204, 204, 204, 206, 206, 209, 216, 216, 214, 214, 216]"
1713642994160971278,"[221, 225, 225, 218, 202, 188, 190, 202, 199, 195, 195, 197, 202, 209, 206, 190, 174, 181, 199, 216, 230, 225, 202, 185, 188, 192, 190, 185, 188, 192, 199, 202, 192, 181, 315, 745, 1234, 1206, 453, -143, 77, 291, 103, 77, 178, 141, 112, 150, 150, 143, 143, 119, 127, 159, 166, 176, 192, 199, 211, 242, 270, 291, 315, 336, 362, 392, 404, 406, 402, 369, 319, 263, 209]"
1713642994722100657,"[162, 122, 84, 65, 68, 72, 61, 42, 42, 61, 75, 87, 98, 96, 89, 103, 117, 119, 122, 105, 84, 96, 122, 127, 127, 122, 115, 122, 134, 138, 138, 134, 129, 134, 143, 145, 145, 138, 122, 110, 110, 110, 110, 94, 65, 56, 63, 56, 42, 35, 37, 47, 54, 61, 58, 56, 61, 68, 75, 82, 84, 82, 87, 94, 101, 105, 110, 119, 138, 150, 136, 105, 91]"
1713642995283214779,"[91, 96, 103, 108, 110, 115, 115, 117, 115, 124, 275, 691, 1135, 1034, 256, -254, 25, 204, 7, 7, 112, 79, 61, 103, 108, 101, 122, 141, 145, 145, 145, 155, 174, 190, 202, 218, 228, 225, 251, 291, 308, 324, 343, 338, 319, 303, 261, 195, 136, 91, 56, 32, 18, 14, 16, 16, 21, 30, 35, 39, 47, 39, 30, 37, 47, 56, 63, 65, 72, 79, 82, 89, 94]"
1713642995844349245,"[94, 94, 96, 98, 105, 105, 101, 94, 77, 72, 87, 94, 89, 89, 91, 98, 112, 112, 108, 115, 110, 101, 105, 110, 96, 84, 89, 96, 96, 82, 44, 23, 23, 23, 28, 32, 35, 35, 35, 44, 58, 61, 56, 61, 70, 77, 82, 87, 82, 84, 101, 98, 91, 98, 112, 112, 101, 91, 89, 89, 84, 84, 94, 103, 103, 105, 101, 89, 157, 479, 992, 1211, 677]"
1713642996405458276,"[-115, -145, 202, 112, -25, 54, 68, 37, 72, 96, 89, 91, 94, 103, 117, 131, 145, 148, 162, 188, 206, 225, 237, 237, 261, 301, 329, 343, 350, 343, 319, 291, 246, 188, 122, 70, 49, 32, 23, 25, 25, 18, 28, 35, 25, 30, 39, 37, 47, 68, 75, 75, 79, 79, 84, 98, 103, 105, 101, 94, 101, 108, 110, 110, 105, 103, 110, 115, 117, 115, 105, 94, 94]"
1713642996966587655,"[101, 103, 91, 68, 51, 51, 51, 42, 30, 11, 14, 25, 30, 35, 32, 14, -7, 0, 21, 21, 21, 30, 32, 44, 70, 89, 91, 77, 61, 54, 58, 68, 72, 68, 56, 47, 56, 75, 65, 72, 275, 747, 1168, 968, 145, -272, 49, 162, -35, 4, 96, 47, 39, 82, 79, 84, 105, 108, 115, 138, 152, 150, 159, 171, 171, 192, 239, 265, 277, 298, 324, 336, 331]"
1713642997527717038,"[324, 324, 308, 256, 183, 108, 39, -2, -44, -79, -65, -58, -72, -49, -16, -18, -18, -2, 2, 7, 16, 21, 23, 23, 23, 37, 47, 39, 37, 42, 44, 51, 58, 56, 58, 61, 63, 70, 77, 77, 77, 79, 82, 84, 94, 96, 89, 91, 103, 108, 103, 101, 96, 87, 84, 96, 94, 79, 61, 49, 51, 49, 42, 39, 39, 39, 42, 47, 54, 54, 51, 56, 61]"
1713642998088846417,"[51, 28, 18, 28, 37, 42, 51, 51, 35, 35, 47, 42, 49, 82, 89, 79, 94, 94, 63, 51, 61, 63, 63, 77, 91, 94, 84, 75, 87, 190, 552, 1053, 1161, 538, -174, -98, 209, 77, -21, 91, 101, 61, 91, 108, 98, 117, 138, 143, 150, 143, 129, 145, 169, 188, 209, 218, 221, 265, 322, 336, 341, 345, 348, 362, 357, 315, 232, 136, 68, 42, 21, -7, -18]"
1713642998649975796,"[-14, -14, -11, 2, 23, 32, 21, 16, 16, 16, 35, 44, 23, 11, 21, 42, 65, 61, 44, 47, 61, 70, 70, 68, 68, 68, 68, 77, 79, 70, 65, 68, 68, 70, 58, 42, 37, 30, 21, 37, 35, 7, 7, 18, 21, 23, 30, 32, 32, 37, 42, 49, 54, 54, 56, 58, 61, 70, 77, 61, 37, 42, 75, 96, 96, 87, 68, 54, 63, 77, 72, 63, 54]"
1713642999211105175,"[44, 47, 70, 65, 65, 265, 738, 1145, 945, 115, -319, 4, 122, -70, -32, 47, 7, 18, 54, 42, 44, 72, 87, 89, 96, 108, 122, 122, 129, 157, 174, 183, 218, 254, 265, 282, 303, 317, 319, 303, 265, 214, 155, 98, 54, 9, -9, -2, -21, -44, -28, -7, -25, -37, -25, -32, -37, -7, 16, 18, 16, 21, 21, 14, 11, 16, 11, 11, 30, 42, 47, 58, 51]"
1713642999772234554,"[37, 44, 56, 58, 61, 56, 37, 28, 42, 51, 49, 47, 39, 44, 65, 58, 32, 42, 61, 47, 30, 30, 14, -16, -14, 14, 21, 18, 21, 18, 14, 23, 42, 49, 42, 32, 42, 54, 49, 56, 72, 63, 51, 58, 47, 39, 63, 72, 68, 63, 56, 54, 61, 56, 42, 42, 56, 70, 70, 51, 58, 270, 762, 1201, 985, 131, -277, 65, 169, -32, 4, 79, 35]"
1713643000333363933,"[49, 96, 91, 87, 96, 103, 122, 143, 145, 138, 129, 150, 181, 188, 192, 216, 242, 272, 305, 331, 345, 343, 324, 296, 254, 197, 138, 82, 37, 16, 11, 7, 4, 4, 7, 11, 2, -14, -7, 2, 4, 14, 30, 39, 44, 37, 28, 37, 54, 56, 51, 51, 54, 61, 68, 70, 70, 68, 61, 54, 56, 61, 58, 49, 39, 35, 35, 25, 18, 21, 21, 23, 32]"
1713643000894493316,"[35, 35, 37, 35, 25, 21, 16, 4, 9, 37, 58, 65, 54, 32, 25, 25, 30, 47, 54, 47, 49, 56, 65, 65, 82, 284, 745, 1112, 853, 32, -338, 9, 117, -79, -32, 58, 2, -7, 39, 42, 39, 63, 72, 79, 98, 110, 119, 136, 152, 171, 192, 214, 242, 270, 293, 322, 338, 341, 338, 322, 282, 225, 164, 103, 58, 25, 4, -2, -16, -32, -25, -9, -7]"
1713643001455622695,"[0, 16, 23, 18, 16, 28, 49, 54, 42, 28, 25, 42, 51, 51, 51, 61, 63, 54, 49, 56, 58, 39, 30, 44, 61, 63, 56, 44, 39, 47, 61, 65, 58, 54, 68, 75, 65, 79, 91, 70, 70, 91, 91, 91, 94, 89, 89, 101, 101, 82, 75, 79, 75, 70, 68, 63, 49, 37, 35, 35, 35, 51, 61, 47, 30, 25, 25, 30, 25, 28, 39, 42, 44]"
1713643002016752074,"[49, 30, 42, 275, 773, 1185, 931, 58, -336, 18, 108, -98, -47, 30, -37, -49, -2, 7, -2, 4, 21, 42, 61, 75, 79, 89, 115, 138, 159, 188, 211, 235, 268, 293, 315, 331, 331, 310, 282, 237, 176, 124, 77, 28, 7, 11, 14, 7, 4, 7, 7, 2, 14, 28, 23, 23, 44, 63, 58, 58, 63, 65, 75, 84, 91, 89, 82, 84, 94, 98, 98, 96, 94]"
1713643002577881453,"[94, 101, 108, 108, 105, 108, 96, 70, 63, 61, 30, 14, 32, 42, 44, 51, 54, 54, 58, 65, 70, 75, 75, 72, 65, 61, 68, 77, 89, 94, 79, 56, 35, 21, 23, 25, 23, 25, 35, 37, 39, 30, 7, 58, 357, 849, 1093, 637, -157, -268, 103, 63, -91, 4, 44, -4, 21, 51, 42, 51, 72, 77, 87, 98, 110, 124, 134, 150, 171, 188, 214, 244, 256]"
1713643003139010832,"[246, 239, 256, 275, 268, 242, 202, 131, 54, 11, -18, -51, -68, -68, -68, -61, -49, -47, -37, -25, -18, -9, 0, 4, 14, 21, 30, 39, 47, 49, 51, 54, 49, 44, 42, 47, 47, 47, 54, 63, 63, 61, 63, 65, 72, 79, 82, 79, 77, 82, 87, 94, 94, 91, 91, 94, 101, 105, 105, 101, 96, 101, 108, 110, 103, 75, 49, 49, 63, 70, 70, 68, 68]"
1713643003700140211,"[77, 84, 87, 87, 75, 54, 54, 70, 79, 89, 79, 49, 32, 32, 30, 14, 0, 11, 28, 32, 30, 18, 14, 164, 604, 1084, 1030, 246, -338, -84, 124, -68, -72, 35, -7, -23, 30, 39, 39, 58, 65, 70, 89, 110, 122, 127, 136, 157, 185, 209, 230, 251, 272, 298, 324, 333, 322, 303, 261, 197, 145, 101, 49, 4, -23, -28, -25, -23, -16, -16, -14, -2, 9]"
1713643004261274681,"[23, 35, 32, 32, 44, 58, 61, 56, 39, 32, 44, 61, 68, 68, 56, 42, 44, 58, 68, 63, 63, 68, 75, 82, 87, 87, 87, 91, 96, 101, 105, 103, 101, 103, 110, 115, 115, 115, 110, 112, 117, 122, 122, 115, 101, 94, 96, 87, 70, 58, 54, 47, 35, 37, 32, 9, -4, 2, 14, 16, 18, 18, 25, 32, 37, 37, 47, 218, 674, 1117, 987, 188, -322]"
1713643004822409147,"[-25, 152, -51, -42, 65, 23, -2, 35, 39, 39, 49, 42, 44, 65, 79, 91, 108, 119, 138, 162, 183, 209, 239, 263, 291, 310, 315, 315, 303, 265, 214, 150, 89, 37, 2, -21, -28, -37, -51, -56, -47, -39, -30, -32, -54, -58, -39, -28, -18, -7, 0, 4, 9, 18, 28, 32, 35, 35, 39, 44, 54, 56, 51, 54, 54, 61, 68, 70, 70, 70, 63, 58, 70]"
1713643005383543613,"[75, 68, 68, 75, 82, 84, 84, 75, 56, 51, 65, 75, 72, 70, 68, 72, 79, 87, 89, 84, 84, 84, 77, 72, 75, 72, 63, 58, 51, 32, 9, 7, 14, 18, 28, 47, 61, 44, 16, 14, 14, 11, 16, 21, 21, 30, 44, 51, 51, 37, 39, 223, 693, 1166, 1055, 232, -301, -9, 169, -28, -25, 51, 2, 9, 63, 63, 56, 72, 84, 98, 115, 127, 134]"
1713643005944657731,"[138, 155, 178, 204, 228, 242, 256, 291, 331, 350, 348, 329, 305, 291, 254, 185, 122, 68, 25, 0, -23, -39, -35, -30, -32, -21, -2, 7, 11, 2, -16, -4, 21, 23, 23, 28, 32, 39, 51, 58, 61, 58, 58, 68, 72, 75, 75, 72, 72, 79, 87, 84, 75, 68, 70, 77, 82, 87, 84, 82, 82, 89, 89, 77, 72, 75, 75, 72, 68, 58, 49, 39, 37]"
1713643006505812545,"[44, 51, 49, 47, 56, 75, 91, 94, 72, 51, 44, 35, 25, 30, 21, 4, 14, 25, 28, 25, 42, 235, 693, 1103, 905, 68, -364, -21, 101, -108, -68, 28, -21, -21, 28, 25, 28, 54, 58, 65, 84, 94, 101, 110, 119, 141, 166, 188, 216, 244, 272, 296, 315, 319, 322, 308, 270, 216, 152, 91, 47, 14, -7, -11, -11, -14, -11, -7, 0, 11, 16, 21, 25]"
1713643007066947011,"[30, 32, 28, 18, 23, 18, -2, -2, 18, 25, 23, 25, 30, 32, 25, 2, -4, 9, 16, 21, 32, 37, 35, 39, 44, 51, 61, 63, 63, 61, 65, 75, 82, 82, 65, 54, 61, 75, 79, 82, 79, 75, 70, 68, 75, 77, 68, 61, 54, 51, 44, 35, 32, 35, 39, 49, 56, 49, 42, 49, 58, 65, 87, 105, 103, 87, 61, 42, 49, 58, 47, 47, 61]"
1713643007628050959,"[70, 72, 65, 37, 35, 225, 689, 1133, 1013, 199, -343, -54, 134, -68, -68, 35, 0, -4, 49, 58, 42, 54, 77, 89, 98, 103, 96, 103, 134, 152, 171, 202, 228, 244, 272, 308, 329, 338, 341, 331, 301, 254, 197, 138, 79, 32, 14, 11, 9, 0, -2, 0, 11, 25, 35, 37, 32, 25, 21, 30, 42, 44, 42, 47, 54, 65, 70, 68, 63, 65, 70, 75, 61]"
1713643008189185425,"[35, 25, 37, 44, 51, 58, 58, 54, 58, 65, 70, 65, 44, 28, 28, 32, 28, 11, 4, 2, -2, -7, -2, 2, 2, 4, 11, 16, 25, 28, 28, 35, 51, 75, 87, 79, 61, 47, 47, 54, 58, 58, 58, 65, 68, 72, 75, 61, 115, 428, 940, 1180, 653, -169, -221, 136, 47, -87, 14, 35, 14, 56, 63, 49, 63, 65, 58, 72, 82, 87, 98, 103, 112]"
1713643008750319891,"[143, 188, 221, 237, 256, 282, 293, 275, 277, 293, 251, 185, 148, 94, 25, -14, -32, -42, -56, -68, -56, -35, -21, -21, -32, -32, -2, 18, 9, 23, 44, 47, 49, 56, 47, 37, 39, 61, 82, 75, 49, 44, 54, 44, 39, 47, 54, 61, 63, 63, 61, 63, 70, 77, 79, 79, 77, 77, 72, 54, 51, 58, 58, 61, 70, 72, 75, 77, 68, 65, 70, 63, 44]"
1713643009311434009,"[32, 32, 28, 25, 32, 21, -11, -25, -14, -4, 2, 11, 2, -4, 7, 25, 39, 51, 58, 63, 63, 54, 44, 42, 39, 37, 44, 56, 70, 75, 61, 32, 37, 223, 696, 1171, 1060, 242, -293, -11, 150, -63, -56, 54, 21, 11, 63, 56, 39, 61, 65, 47, 51, 68, 72, 87, 127, 152, 164, 174, 192, 228, 256, 268, 277, 286, 291, 293, 275, 223, 159, 96, 42]"
1713643009872563388,"[14, -2, -14, -23, -30, -30, -21, -7, 2, -4, -18, -11, 2, 11, 21, 23, 14, 21, 44, 51, 51, 56, 49, 39, 47, 58, 61, 56, 51, 51, 58, 68, 65, 63, 63, 68, 72, 82, 82, 72, 61, 56, 61, 51, 18, -2, 2, 2, -9, -4, 2, -2, 0, -4, -11, -9, -2, 2, 2, 11, 32, 58, 68, 49, 30, 25, 32, 37, 37, 44, 51, 51, 56]"
1713643010433692767,"[65, 54, 65, 272, 747, 1164, 940, 82, -329, 18, 124, -79, -37, 39, -14, -7, 35, 32, 32, 49, 63, 72, 82, 96, 108, 119, 138, 157, 176, 199, 223, 251, 282, 310, 319, 329, 329, 291, 237, 188, 127, 63, 14, -14, -30, -56, -75, -63, -51, -47, -37, -28, -21, -16, -11, 0, 14, 16, 18, 23, 30, 37, 47, 49, 47, 49, 51, 56, 63, 63, 58, 56, 58]"
1713643010994822150,"[65, 70, 70, 61, 51, 51, 61, 68, 68, 56, 37, 32, 47, 56, 54, 51, 51, 56, 68, 72, 70, 61, 58, 68, 68, 58, 61, 58, 44, 21, 2, 4, -2, -16, -11, -4, -14, -16, -11, -14, -11, 9, 28, 42, 51, 47, 30, 21, 23, 32, 32, 28, 32, 44, 51, 56, 42, 39, 216, 679, 1147, 1048, 244, -301, -21, 155, -44, -39, 49, -4, -11, 42, 44]"
1713643011555951529,"[47, 68, 65, 70, 98, 115, 115, 122, 134, 152, 178, 199, 218, 225, 239, 272, 298, 308, 315, 303, 263, 199, 127, 72, 32, -14, -56, -75, -75, -65, -61, -63, -58, -42, -23, -9, -9, -11, -7, 9, 28, 30, 25, 28, 37, 44, 54, 58, 56, 54, 56, 63, 72, 72, 65, 65, 70, 77, 77, 65, 54, 58, 63, 68, 77, 77, 70, 65, 58, 58, 63, 63, 56]"
1713643012117080908,"[44, 37, 32, 28, 25, 25, 28, 25, 28, 37, 39, 37, 44, 28, -14, -37, -28, -23, -30, -35, -25, -11, -7, -2, 0, 23, 239, 719, 1098, 830, 14, -329, 18, 108, -87, -39, 49, 4, 7, 47, 42, 47, 68, 72, 79, 96, 108, 119, 134, 143, 145, 155, 181, 216, 242, 265, 289, 305, 315, 317, 301, 258, 202, 136, 77, 35, 2, -23, -37, -39, -30, -23, -21]"
1713643012678210287,"[-16, -9, -4, 0, 14, 14, -9, -39, -47, -39, -39, -35, -21, -14, -11, -2, 9, 14, 11, 14, 18, 28, 37, 39, 35, 32, 44, 56, 58, 58, 61, 56, 61, 72, 75, 75, 70, 65, 77, 87, 87, 75, 56, 56, 68, 75, 77, 77, 72, 72, 79, 82, 70, 61, 58, 56, 58, 56, 58, 70, 61, 42, 37, 30, 21, 21, 18, 16, 23, 32, 39, 30, -9]"
1713643013239339666,"[-32, 98, 519, 1013, 1023, 291, -336, -131, 112, -72, -119, -23, -44, -56, -7, 2, -7, 7, 21, 35, 56, 72, 72, 79, 101, 124, 145, 169, 192, 209, 239, 270, 279, 272, 268, 268, 256, 216, 157, 96, 42, 2, -14, -25, -32, -28, -30, -37, -21, -2, 7, 14, 9, 9, 23, 37, 39, 39, 37, 42, 51, 58, 65, 63, 42, 21, 32, 44, 39, 42, 44, 44, 51]"
1713643013800469045,"[58, 58, 56, 61, 68, 72, 72, 65, 47, 39, 51, 58, 63, 65, 61, 63, 72, 75, 79, 79, 77, 77, 68, 51, 47, 44, 44, 51, 61, 61, 44, 21, 7, 9, 14, 14, 16, 16, 21, 28, 30, 25, 39, 228, 691, 1103, 900, 94, -329, -14, 117, -72, -44, 44, 2, -11, 2, -23, -23, 9, 16, 16, 37, 61, 72, 84, 103, 119, 145, 171, 195, 223, 251]"
1713643014361598428,"[272, 293, 303, 296, 275, 225, 152, 98, 49, -2, -37, -58, -63, -61, -70, -82, -70, -58, -56, -39, -25, -28, -23, -11, 0, 11, 18, 18, 21, 28, 37, 44, 47, 42, 37, 42, 49, 51, 47, 44, 42, 42, 49, 56, 51, 47, 42, 30, 32, 32, 11, -9, -2, 9, 14, 21, 28, 23, 21, 32, 42, 44, 47, 42, 39, 51, 61, 61, 65, 61, 56, 68, 75]"
1713643014922737981,"[82, 101, 105, 89, 68, 44, 23, 16, -4, -30, -28, -16, -25, -30, -35, -47, 23, 350, 858, 1079, 547, -237, -265, 72, -16, -141, -44, -21, -54, -16, 14, 0, 2, 23, 39, 51, 63, 68, 68, 82, 110, 131, 131, 124, 150, 192, 223, 244, 265, 272, 261, 246, 221, 171, 110, 54, 9, -14, -23, -25, -28, -28, -23, -11, -2, 4, 14, 18, 21, 23, 16, 21, 32]"
1713643015483872447,"[37, 37, 42, 54, 70, 70, 61, 54, 63, 79, 82, 63, 42, 49, 65, 70, 75, 72, 65, 70, 79, 89, 91, 82, 82, 91, 94, 94, 91, 87, 82, 91, 98, 98, 96, 82, 63, 63, 77, 82, 82, 84, 87, 91, 94, 79, 70, 82, 103, 110, 103, 77, 47, 30, 32, 35, 39, 44, 37, 30, 32, 28, 14, 63, 343, 853, 1143, 696, -124, -265, 91, 65, -91]"
1713643016045006913,"[-11, 39, 4, 23, 44, 37, 49, 63, 51, 37, 51, 70, 79, 98, 119, 136, 162, 190, 214, 232, 246, 270, 293, 301, 298, 284, 235, 164, 89, 16, -28, -49, -65, -70, -61, -58, -54, -39, -35, -30, -14, -4, -4, 2, 11, 18, 30, 37, 32, 30, 39, 44, 28, 23, 37, 37, 35, 37, 49, 54, 54, 54, 56, 61, 68, 70, 68, 68, 70, 77, 79, 79, 77]"
1713643016606141379,"[75, 79, 89, 94, 91, 77, 61, 58, 75, 94, 98, 87, 68, 58, 54, 49, 54, 51, 47, 44, 21, -2, 9, 11, -7, 54, 371, 870, 1067, 519, -268, -291, 68, -16, -152, -54, -30, -70, -32, -2, -14, -14, 2, 4, 7, 28, 42, 44, 63, 91, 112, 138, 162, 183, 214, 251, 275, 286, 289, 277, 258, 211, 148, 89, 35, -14, -35, -39, -42, -42, -47, -49, -32]"
1713643017167245323,"[-18, -18, -25, -32, -30, -14, 0, 9, 11, -7, -16, 0, 4, -14, -23, -18, -14, -7, 4, 11, 11, 14, 16, 23, 35, 44, 42, 39, 44, 54, 61, 65, 65, 56, 42, 42, 56, 61, 58, 56, 56, 65, 79, 77, 70, 77, 82, 82, 91, 91, 87, 87, 89, 91, 98, 103, 103, 101, 101, 105, 119, 131, 124, 110, 94, 72, 51, 37, 32, 25, 16, 25, 35]"
1713643017728379793,"[25, 16, 16, 150, 576, 1077, 1063, 293, -336, -122, 108, -84, -129, -23, -37, -61, -14, 4, -7, 11, 35, 44, 56, 68, 75, 77, 87, 108, 131, 152, 176, 209, 244, 268, 286, 301, 301, 301, 284, 232, 166, 112, 63, 28, 0, -21, -25, -21, -16, -4, 4, 4, 11, 14, 21, 32, 35, 23, 21, 25, 30, 42, 51, 47, 44, 56, 58, 61, 70, 72, 65, 49, 32]"
1713643018289514259,"[47, 56, 49, 51, 56, 61, 70, 75, 68, 51, 39, 51, 63, 65, 63, 65, 61, 51, 61, 72, 65, 58, 65, 75, 82, 79, 72, 79, 103, 122, 117, 105, 87, 70, 72, 70, 61, 61, 58, 51, 49, 47, 32, 28, 202, 667, 1093, 893, 61, -383, -61, 68, -127, -91, 2, -44, -56, -11, -2, -2, 21, 30, 25, 25, 23, 30, 54, 70, 77, 103, 141, 171, 197]"
1713643018850648725,"[225, 239, 258, 279, 284, 265, 223, 150, 77, 32, -2, -44, -84, -105, -103, -91, -84, -77, -75, -72, -61, -44, -35, -25, -21, -18, -4, 9, 16, 21, 14, 11, 28, 39, 39, 42, 39, 35, 35, 37, 37, 35, 32, 35, 42, 51, 56, 58, 54, 54, 61, 70, 77, 75, 72, 75, 63, 44, 47, 54, 49, 51, 61, 70, 72, 72, 72, 75, 82, 89, 87, 84, 77]"
1713643019411783191,"[77, 82, 89, 94, 94, 89, 87, 103, 124, 115, 82, 61, 51, 47, 47, 35, 21, 14, 11, 18, 21, 14, 4, 72, 395, 912, 1131, 587, -197, -221, 98, -14, -129, -16, -2, -44, -9, 21, 18, 25, 35, 49, 70, 79, 84, 96, 115, 136, 150, 157, 157, 174, 214, 242, 254, 270, 289, 289, 275, 239, 183, 129, 72, 18, -11, -21, -28, -32, -30, -21, -4, -2, -4]"
1713643019972892222,"[11, 25, 28, 32, 42, 49, 42, 23, 25, 49, 56, 49, 49, 49, 51, 61, 65, 61, 61, 63, 65, 65, 54, 54, 58, 56, 65, 75, 72, 70, 75, 79, 82, 87, 89, 82, 79, 96, 108, 101, 96, 87, 68, 63, 70, 63, 61, 63, 58, 54, 44, 42, 56, 54, 42, 39, 28, 18, 23, 23, 16, 25, 35, 39, 44, 42, 30, 54, 275, 752, 1131, 856, 25]"
1713643020534021601,"[-310, 42, 127, -72, -47, 14, -21, -2, 37, 23, 18, 37, 44, 42, 58, 75, 75, 87, 115, 136, 155, 183, 204, 230, 263, 286, 301, 305, 298, 279, 249, 197, 136, 75, 9, -49, -75, -65, -63, -75, -75, -56, -44, -39, -39, -51, -54, -35, -16, -9, -2, -2, 0, 9, 21, 30, 30, 23, 23, 30, 37, 42, 42, 37, 32, 39, 47, 54, 54, 44, 42, 51, 61]"
1713643021095156071,"[61, 56, 51, 42, 28, 35, 42, 23, 4, 14, 25, 28, 32, 32, 32, 35, 39, 47, 54, 54, 51, 47, 39, 42, 44, 42, 30, 4, 0, 18, 16, -9, -25, -30, -28, -30, -39, -44, -30, -21, -16, -14, -23, 18, 305, 820, 1119, 686, -141, -291, 72, 30, -127, -25, 14, -37, -9, 25, 16, 25, 44, 51, 61, 72, 84, 98, 108, 117, 124, 136, 164, 195, 218]"
1713643021656290537,"[249, 272, 284, 293, 293, 270, 239, 197, 129, 68, 16, -30, -49, -49, -54, -49, -39, -35, -35, -47, -61, -47, -35, -30, -9, 2, -9, -16, -9, -2, 9, 18, 16, 18, 28, 37, 44, 49, 49, 49, 54, 56, 61, 68, 75, 70, 72, 84, 89, 87, 87, 87, 87, 94, 105, 108, 98, 89, 79, 75, 84, 87, 70, 61, 65, 75, 79, 70, 56, 47, 42, 37, 39]"
1713643022217409742,"[47, 42, 32, 35, 56, 87, 98, 68, 32, 25, 32, 30, 11, -9, -11, 9, 28, 23, 9, 4, 143, 573, 1058, 1032, 289, -312, -87, 150, -32, -58, 51, 21, -4, 49, 68, 65, 77, 82, 91, 108, 119, 136, 150, 155, 169, 195, 221, 246, 275, 291, 301, 317, 336, 341, 322, 289, 244, 188, 127, 79, 35, -2, -14, -11, -11, -7, -7, -9, 0, 16, 21, 23, 28]"
1713643022778559469,"[30, 37, 49, 56, 61, 51, 23, 23, 35, 23, 9, -2, -9, 4, 21, 23, 21, 18, 23, 30, 37, 47, 49, 44, 44, 54, 61, 61, 61, 61, 61, 70, 77, 77, 75, 72, 72, 77, 87, 91, 79, 61, 51, 51, 56, 58, 54, 42, 39, 56, 63, 51, 35, 21, 7, 7, 18, 21, 14, 18, 25, 28, 32, 21, 32, 261, 757, 1150, 874, 32, -317, 4, 42]"
1713643023339668500,"[-157, -94, -18, -68, -54, -11, -14, -11, -9, -9, 9, 25, 39, 54, 68, 84, 108, 129, 155, 183, 209, 235, 263, 282, 289, 289, 279, 246, 192, 131, 77, 32, -11, -39, -44, -47, -42, -37, -32, -21, -11, -7, 0, 4, 11, 25, 32, 32, 37, 44, 44, 49, 58, 58, 54, 58, 65, 68, 68, 68, 63, 65, 70, 61, 37, 25, 37, 42, 44, 51, 54, 54, 54]"
1713643023900797879,"[51, 63, 77, 75, 63, 51, 39, 47, 65, 65, 58, 61, 63, 56, 49, 58, 63, 47, 39, 44, 49, 37, 11, 0, 18, 32, 23, 25, 37, 51, 68, 72, 56, 37, 28, 28, 42, 51, 54, 54, 54, 61, 61, 51, 143, 512, 1016, 1140, 524, -209, -138, 174, 28, -70, 42, 35, -32, -25, -7, 4, 25, 42, 56, 63, 68, 87, 108, 122, 141, 157, 171, 199, 232]"
1713643024461932349,"[263, 293, 303, 303, 317, 324, 301, 254, 181, 96, 49, 16, -11, -25, -44, -61, -51, -35, -28, -18, -11, -14, -2, 14, 18, 23, 28, 32, 39, 49, 54, 54, 51, 54, 58, 68, 70, 65, 61, 61, 65, 72, 72, 72, 68, 63, 54, 54, 58, 39, 16, 23, 37, 39, 44, 47, 47, 49, 58, 63, 65, 63, 54, 44, 47, 58, 65, 51, 35, 30, 30, 37, 56]"
1713643025023066815,"[58, 39, 18, 7, 9, 7, -4, 0, 4, 7, 16, 2, -32, -28, 157, 611, 1058, 928, 127, -362, -61, 103, -98, -87, 14, -21, -32, 14, 18, 11, 32, 44, 49, 70, 84, 87, 101, 108, 105, 129, 162, 174, 176, 192, 223, 244, 254, 258, 254, 225, 169, 112, 58, 11, -18, -37, -51, -54, -51, -47, -35, -30, -28, -16, -4, 0, 9, 18, 18, 9, 4, 11, 23]"
1713643025584216538,"[28, 32, 37, 32, 35, 47, 51, 47, 35, 21, 23, 37, 39, 37, 37, 42, 49, 56, 56, 56, 58, 58, 63, 77, 79, 72, 70, 72, 65, 56, 61, 65, 61, 58, 44, 28, 37, 42, 32, 30, 32, 39, 42, 37, 25, 23, 23, 16, 25, 42, 47, 42, 35, 25, 16, 14, 18, 28, 32, 37, 28, 9, 2, 14, 162, 585, 1058, 1013, 261, -308, -63, 143, -51]"
1713643026145345917,"[-79, 28, 14, 0, 39, 37, 7, 14, 44, 61, 70, 72, 75, 96, 124, 141, 155, 181, 202, 214, 232, 261, 282, 286, 284, 284, 268, 209, 129, 70, 23, -14, -32, -39, -35, -35, -39, -30, -14, -4, 2, 7, 14, 25, 32, 39, 44, 47, 51, 58, 58, 56, 47, 37, 39, 49, 58, 61, 61, 56, 51, 61, 72, 75, 77, 77, 72, 79, 91, 89, 87, 94, 89]"
1713643026706470213,"[84, 96, 108, 98, 87, 94, 108, 110, 94, 79, 58, 37, 37, 56, 61, 47, 32, 32, 30, 23, 11, 9, 7, -9, -16, 0, 2, 2, 9, 11, 18, 32, 35, 25, 44, 251, 724, 1119, 870, 47, -312, 28, 115, -91, -47, 44, -2, -7, 37, 37, 32, 54, 70, 79, 94, 108, 115, 127, 145, 162, 183, 206, 228, 254, 284, 305, 317, 326, 319, 308, 275, 214, 150]"
1713643027267604679,"[96, 49, 4, -25, -35, -39, -54, -65, -54, -37, -35, -30, -32, -44, -32, -16, -16, -11, 2, 7, 16, 25, 28, 30, 30, 37, 44, 47, 44, 47, 51, 49, 58, 54, 35, 32, 44, 47, 51, 61, 63, 56, 58, 68, 72, 75, 77, 72, 72, 79, 87, 87, 87, 84, 87, 91, 98, 108, 119, 127, 124, 112, 91, 70, 61, 56, 47, 42, 42, 37, 28, 9, -7]"
1713643027828734058,"[70, 411, 926, 1112, 515, -298, -303, 37, -70, -185, -72, -54, -87, -44, -23, -39, -23, 4, 14, 25, 42, 47, 58, 82, 96, 101, 119, 141, 166, 206, 244, 263, 268, 268, 265, 251, 214, 157, 96, 35, 2, -11, -25, -30, -35, -39, -30, -11, -9, -2, 4, 0, 9, 30, 37, 39, 42, 30, 30, 44, 54, 56, 51, 47, 51, 65, 72, 68, 61, 58, 58, 42, 28]"
1713643028389863437,"[37, 39, 32, 39, 56, 61, 61, 56, 54, 63, 72, 72, 61, 42, 44, 51, 39, 37, 47, 44, 42, 51, 63, 72, 70, 68, 89, 110, 117, 105, 79, 63, 61, 58, 56, 58, 58, 54, 42, 37, 25, 37, 251, 731, 1100, 811, -4, -319, 9, 56, -129, -63, 11, -39, -32, 11, 4, 7, 35, 39, 39, 61, 72, 61, 56, 77, 98, 117, 141, 171, 202, 228, 254]"
1713643028950992816,"[268, 270, 272, 270, 235, 176, 112, 44, -4, -32, -70, -87, -75, -68, -61, -51, -49, -37, -23, -18, -11, 0, 4, 14, 25, 25, 30, 42, 44, 49, 54, 54, 56, 58, 61, 63, 68, 70, 65, 56, 58, 70, 72, 68, 72, 75, 77, 84, 84, 84, 87, 89, 87, 96, 103, 91, 68, 51, 61, 72, 70, 65, 75, 82, 82, 91, 112, 124, 124, 110, 87, 68, 58]"
1713643029512122195,"[61, 65, 68, 75, 87, 84, 68, 47, 84, 350, 832, 1119, 712, -98, -282, 63, 56, -110, -47, -11, -51, -28, 7, 4, 7, 14, 30, 51, 65, 63, 56, 63, 91, 117, 136, 162, 188, 214, 242, 270, 291, 296, 282, 261, 230, 181, 117, 61, 4, -49, -70, -61, -58, -58, -56, -49, -32, -18, -14, -7, 0, 2, -2, 0, 14, 16, 11, 18, 32, 39, 42, 44, 42]"
1713643030073251574,"[44, 49, 54, 61, 56, 47, 54, 65, 70, 65, 47, 32, 42, 54, 56, 63, 63, 56, 63, 75, 75, 61, 47, 49, 72, 98, 110, 101, 75, 56, 61, 68, 70, 72, 70, 70, 77, 84, 82, 72, 110, 373, 867, 1133, 649, -166, -256, 115, 61, -87, 16, 47, -14, -9, 2, 0, 16, 28, 23, 23, 32, 42, 42, 51, 68, 84, 103, 134, 169, 192, 211, 230, 246]"
1713643030634380953,"[256, 249, 221, 174, 112, 56, 9, -44, -82, -89, -91, -94, -98, -105, -96, -77, -70, -56, -42, -37, -30, -16, -11, 0, 11, 11, 14, 23, 28, 35, 39, 42, 44, 35, 9, 7, 18, 18, 21, 32, 35, 39, 44, 42, 32, 30, 32, 42, 44, 47, 54, 58, 58, 61, 63, 68, 79, 79, 75, 77, 77, 79, 105, 127, 122, 108, 89, 75, 82, 84, 82, 82, 82]"
1713643031195510336,"[84, 94, 91, 63, 47, 214, 682, 1126, 952, 131, -315, 0, 127, -68, -39, 47, 2, -2, 39, 32, 21, 37, 47, 44, 54, 54, 32, 9, 16, 47, 75, 98, 127, 150, 169, 181, 192, 209, 214, 195, 157, 110, 61, 11, -28, -63, -79, -82, -77, -68, -51, -54, -56, -37, -21, -14, -7, -2, 0, 14, 25, 32, 37, 35, 35, 47, 54, 44, 30, 28, 35, 42, 49]"
1713643031756649889,"[56, 54, 44, 51, 65, 70, 70, 58, 37, 39, 58, 58, 56, 63, 56, 54, 70, 79, 72, 51, 32, 42, 56, 58, 68, 68, 54, 51, 68, 75, 68, 70, 87, 105, 115, 105, 84, 68, 68, 77, 84, 84, 82, 77, 77, 84, 77, 94, 317, 801, 1182, 898, 65, -258, 89, 141, -61, 0, 70, 7, 0, 25, 21, 35, 51, 51, 47, 47, 47, 51, 70, 89, 98]"
1713643032317784355,"[112, 138, 166, 195, 228, 254, 258, 258, 265, 251, 211, 143, 56, -2, -28, -49, -68, -84, -94, -89, -77, -63, -63, -77, -68, -51, -39, -25, -16, -18, -4, 9, 14, 23, 28, 28, 32, 37, 39, 49, 49, 49, 56, 58, 56, 65, 68, 68, 70, 58, 47, 56, 63, 61, 68, 77, 75, 72, 77, 82, 84, 87, 91, 96, 91, 96, 115, 129, 131, 124, 110, 98, 91]"
1713643032878918821,"[91, 94, 91, 87, 75, 54, 51, 58, 42, 89, 402, 905, 1117, 599, -202, -261, 105, 39, -103, 2, 28, -21, 14, 44, 30, 37, 54, 49, 51, 65, 72, 82, 87, 89, 108, 122, 129, 152, 181, 206, 218, 216, 214, 206, 181, 136, 82, 23, -28, -65, -82, -87, -87, -84, -84, -82, -68, -49, -37, -32, -28, -23, -11, 2, 11, 16, 18, 21, 30, 37, 28, 7, -9]"
1713643033440058370,"[-9, -2, 9, 18, 18, 0, -11, 2, 18, 23, 25, 23, 25, 37, 47, 54, 58, 49, 54, 68, 72, 75, 77, 72, 75, 84, 89, 94, 96, 87, 84, 89, 79, 72, 82, 77, 75, 87, 96, 98, 94, 91, 110, 134, 138, 124, 96, 82, 89, 96, 98, 96, 94, 91, 94, 98, 94, 101, 279, 731, 1147, 954, 127, -322, -35, 65, -129, -103, -23, -65, -70, -35, -32]"
1713643034001187753,"[-25, -2, 4, 2, 11, 35, 51, 61, 68, 65, 79, 110, 143, 176, 204, 218, 232, 246, 258, 249, 211, 152, 84, 23, -16, -37, -58, -75, -72, -61, -56, -51, -39, -28, -18, -14, -4, 7, 11, 14, 21, 30, 39, 42, 44, 47, 44, 51, 61, 56, 54, 58, 61, 61, 61, 44, 28, 39, 49, 47, 49, 54, 56, 56, 56, 61, 65, 70, 77, 77, 72, 77, 82]"
1713643034562317132,"[79, 79, 84, 77, 82, 87, 68, 58, 70, 70, 77, 101, 112, 103, 70, 44, 47, 54, 54, 58, 63, 65, 65, 58, 44, 42, 112, 409, 903, 1126, 609, -197, -275, 75, 11, -129, -28, 4, -47, -18, 11, 0, 11, 37, 39, 39, 39, 32, 25, 37, 63, 82, 103, 134, 169, 204, 230, 251, 263, 268, 265, 246, 197, 127, 63, 21, -11, -35, -51, -65, -68, -56, -42]"
1713643035123446511,"[-32, -28, -25, -23, -23, -18, -9, -7, -11, -25, -23, -7, 7, 11, 9, 11, 18, 25, 32, 37, 32, 30, 37, 47, 51, 49, 44, 44, 61, 65, 65, 68, 61, 58, 70, 75, 70, 56, 42, 44, 37, 18, 21, 32, 25, 25, 39, 51, 58, 68, 77, 89, 94, 77, 61, 58, 54, 56, 65, 70, 72, 70, 63, 61, 56, 145, 508, 1011, 1121, 465, -279, -192, 105]"
1713643035684575890,"[-58, -162, -49, -47, -82, -42, -32, -49, -28, -4, 2, 7, -2, -4, 18, 44, 58, 79, 103, 122, 152, 190, 216, 235, 242, 244, 244, 216, 155, 84, 28, -18, -51, -79, -112, -127, -115, -108, -98, -79, -68, -63, -56, -47, -32, -21, -11, -7, -4, 0, 14, 25, 23, 21, 25, 30, 32, 42, 49, 47, 32, 23, 37, 47, 42, 42, 44, 47, 51, 61, 63, 58, 61]"
1713643036245705269,"[63, 65, 68, 70, 75, 75, 68, 72, 79, 65, 47, 51, 63, 63, 63, 63, 68, 68, 63, 51, 44, 51, 61, 58, 61, 56, 32, 16, 23, 35, 49, 61, 49, 21, 0, -2, -4, -11, -11, -9, -2, 7, 4, -7, 9, 216, 700, 1114, 881, 56, -331, -9, 82, -110, -65, 14, -32, -30, 21, 23, 23, 42, 51, 54, 77, 91, 94, 105, 127, 145, 166, 185, 214]"
1713643036806834648,"[246, 268, 284, 305, 315, 308, 284, 232, 176, 127, 61, -7, -39, -51, -61, -56, -51, -51, -44, -51, -65, -47, -25, -30, -30, -9, 9, 11, 11, 16, 23, 30, 37, 44, 49, 42, 37, 44, 58, 63, 61, 58, 51, 44, 54, 61, 61, 56, 54, 61, 68, 70, 75, 72, 70, 75, 84, 89, 87, 79, 82, 89, 94, 98, 96, 89, 89, 101, 110, 122, 136, 136, 124]"
1713643037367964027,"[105, 77, 68, 61, 30, 21, 39, 44, 39, 28, 7, -7, 79, 425, 912, 1004, 336, -359, -216, 84, -70, -145, -35, -37, -65, -21, 0, -11, -2, 16, 30, 44, 56, 58, 61, 79, 108, 127, 148, 171, 192, 225, 258, 277, 289, 289, 272, 249, 206, 145, 79, 25, -11, -32, -39, -39, -42, -42, -39, -28, -14, -7, -4, -2, 0, -2, -4, 4, 11, 11, 16, 28, 32]"
1713643037929098497,"[35, 39, 42, 37, 37, 25, -4, -23, -14, -4, 0, 9, 14, 14, 18, 25, 30, 37, 42, 37, 37, 44, 56, 56, 47, 44, 49, 54, 58, 63, 63, 63, 68, 70, 72, 79, 77, 77, 82, 84, 84, 89, 89, 87, 91, 82, 72, 75, 75, 72, 75, 82, 89, 79, 49, 28, 11, -7, 2, 16, 9, 11, 23, 25, 18, 2, 65, 395, 891, 1070, 533, -214, -228]"
1713643038490222789,"[87, -16, -124, 4, 18, -65, -47, 18, 23, 30, 65, 35, 11, 70, 89, 75, 112, 122, 98, 136, 190, 199, 192, 242, 324, 293, 197, 199, 237, 216, 162, 89, 39, 58, 25, -58, -42, 2, -49, -82, -37, 2, 9, 2, -4, 9, 28, 32, 35, 28, 9, 0, 9, 28, 44, 49, 49, 51, 58, 63, 72, 77, 56, 37, 35, 23, 16, 14, 14, 23, 54, 79, 68]"
1713643039051367429,"[30, 32, 65, 75, 70, 72, 54, 7, -4, 18, 32, 35, 14, -9, 18, 49, 28, 11, 28, 23, -9, -7, 18, 39, 51, 44, 32, 30, 28, 28, 30, 28, 32, 47, 49, 54, 58, 39, 63, 329, 841, 1135, 682, -131, -251, 112, 68, -89, 14, 51, -7, 28, 65, 51, 58, 70, 58, 44, 58, 79, 89, 103, 124, 143, 166, 197, 218, 239, 268, 293, 296, 289, 277]"
1713643039612501895,"[256, 221, 162, 96, 44, 2, -30, -44, -42, -44, -63, -75, -61, -44, -35, -25, -21, -28, -16, 4, 14, 21, 30, 32, 32, 37, 51, 56, 49, 39, 28, 32, 42, 42, 39, 44, 47, 54, 63, 58, 56, 61, 65, 68, 72, 72, 72, 72, 75, 61, 37, 32, 44, 44, 42, 51, 63, 63, 65, 70, 65, 54, 47, 51, 61, 63, 51, 32, 21, 9, 2, 0, -9]"
1713643040173641444,"[-9, -2, -2, 0, -7, 7, 232, 719, 1077, 766, -61, -357, -2, 44, -145, -75, 0, -51, -42, 0, -16, -25, -4, 11, 18, 30, 44, 63, 77, 91, 112, 134, 155, 185, 218, 244, 265, 277, 286, 291, 275, 228, 150, 65, 18, -7, -42, -63, -65, -65, -61, -49, -51, -63, -58, -39, -28, -18, -9, -4, 0, 7, 18, 28, 32, 32, 32, 39, 54, 56, 54, 54, 54]"
1713643040734770823,"[54, 61, 68, 70, 56, 35, 35, 49, 56, 56, 56, 54, 42, 42, 56, 63, 54, 51, 63, 68, 70, 70, 65, 65, 72, 82, 87, 84, 75, 79, 89, 79, 65, 72, 77, 65, 56, 51, 30, -4, -21, -4, 7, -2, -16, -23, -23, -11, -2, -2, 138, 559, 1013, 961, 232, -326, -89, 122, -70, -87, 32, 4, -14, 25, 23, 25, 61, 75, 70, 75, 87, 103, 119]"
1713643041295900206,"[136, 157, 171, 174, 192, 230, 270, 289, 279, 275, 289, 284, 246, 192, 127, 58, 23, 2, -21, -28, -37, -54, -49, -23, -14, -18, -14, -16, -37, -32, -4, 0, -7, 2, 7, -4, -4, 9, 14, 16, 32, 42, 37, 35, 39, 44, 44, 49, 56, 56, 54, 58, 63, 68, 70, 68, 68, 61, 51, 77, 103, 79, 70, 98, 105, 94, 105, 117, 105, 94, 82, 70, 65]"
1713643041857039759,"[65, 65, 65, 77, 77, 68, 70, 75, 75, 211, 623, 1058, 968, 211, -345, -96, 124, -72, -108, -11, -58, -108, -82, -75, -75, -58, -49, -39, -30, -23, -4, 14, 23, 51, 82, 103, 134, 169, 188, 221, 251, 251, 246, 237, 195, 136, 70, 16, -23, -56, -75, -79, -84, -82, -65, -61, -58, -49, -49, -49, -35, -23, -18, -14, -7, 0, 14, 23, 21, 21, 25, 30, 37]"
1713643042418174225,"[42, 37, 39, 44, 44, 51, 56, 44, 28, 18, 28, 39, 35, 11, -7, -2, 9, 2, -2, 2, 4, 9, 21, 37, 37, 32, 35, 44, 51, 58, 61, 58, 61, 65, 77, 98, 115, 112, 96, 84, 77, 79, 82, 70, 68, 84, 91, 89, 87, 63, 58, 242, 698, 1138, 1001, 195, -293, -4, 136, -63, -42, 39, -14, -25, 14, 4, -14, -2, 9, 18, 32, 49, 54]"
1713643042979318861,"[58, 77, 101, 124, 150, 166, 169, 174, 188, 204, 221, 214, 174, 141, 105, 51, 0, -42, -79, -94, -94, -87, -77, -75, -77, -61, -42, -28, -23, -21, -16, -2, 14, 23, 30, 28, 30, 44, 51, 47, 35, 23, 28, 35, 42, 51, 51, 44, 51, 63, 68, 68, 72, 70, 68, 77, 87, 87, 79, 82, 84, 87, 101, 108, 98, 94, 103, 108, 108, 122, 141, 143, 119]"
1713643043540448240,"[79, 65, 72, 65, 63, 70, 75, 75, 75, 65, 56, 49, 119, 449, 945, 1124, 583, -176, -195, 155, 77, -56, 42, 68, 18, 35, 51, 47, 61, 68, 58, 44, 32, 37, 56, 63, 77, 105, 131, 157, 188, 214, 239, 261, 268, 275, 270, 232, 176, 117, 54, 7, -28, -56, -68, -70, -68, -61, -54, -49, -39, -30, -28, -30, -42, -54, -58, -44, -32, -25, -14, -9, -4]"
1713643044101577619,"[0, 7, 16, 18, 21, 16, -2, -9, 7, 14, 14, 21, 28, 32, 39, 44, 47, 47, 49, 56, 65, 65, 51, 37, 44, 56, 61, 65, 70, 65, 65, 87, 115, 122, 105, 87, 75, 75, 82, 82, 77, 72, 79, 87, 91, 87, 70, 134, 470, 992, 1185, 609, -181, -185, 148, 35, -84, 16, 0, -58, -9, 23, 11, 25, 39, 39, 56, 77, 87, 84, 82, 98, 124]"
1713643044662707002,"[148, 162, 171, 166, 166, 192, 218, 218, 202, 169, 119, 63, 9, -44, -94, -122, -124, -117, -110, -101, -94, -94, -82, -63, -49, -39, -35, -35, -21, -4, 4, 11, 11, 9, 16, 32, 42, 44, 39, 37, 44, 56, 58, 61, 56, 39, 32, 44, 54, 49, 25, 9, 25, 47, 49, 44, 47, 47, 51, 63, 70, 70, 65, 63, 72, 82, 84, 84, 82, 82, 89, 94, 103]"
1713643045223846555,"[101, 94, 94, 101, 94, 82, 79, 82, 79, 84, 94, 91, 72, 63, 68, 75, 84, 98, 112, 117, 110, 96, 87, 84, 84, 84, 84, 87, 79, 72, 72, 63, 54, 197, 627, 1095, 1018, 223, -343, -87, 103, -98, -119, -37, -82, -84, -32, -32, -35, -9, 2, 7, 28, 49, 56, 68, 89, 108, 134, 162, 183, 209, 235, 261, 282, 289, 296, 291, 254, 190, 131, 79, 37]"
1713643045784981021,"[2, -21, -28, -32, -42, -28, -7, -9, -11, -11, -18, -9, 7, 14, 18, 25, 35, 44, 49, 51, 56, 56, 58, 70, 75, 68, 68, 72, 63, 68, 79, 72, 68, 72, 79, 79, 58, 39, 44, 49, 54, 68, 75, 70, 68, 70, 79, 87, 89, 89, 89, 91, 98, 105, 105, 103, 101, 103, 110, 105, 89, 84, 87, 89, 94, 101, 112, 124, 131, 127, 98, 72, 70]"
1713643046346115487,"[70, 61, 56, 49, 47, 42, 16, -7, -11, 82, 446, 957, 1084, 456, -279, -209, 117, -11, -122, -21, -11, -42, -2, 16, 2, 11, 37, 49, 47, 32, 32, 56, 77, 96, 122, 148, 162, 190, 230, 258, 277, 289, 286, 279, 261, 214, 155, 94, 32, -4, -30, -54, -61, -61, -63, -54, -37, -28, -23, -18, -21, -9, 9, 18, 21, 21, 25, 37, 44, 47, 51, 51, 44]"
1713643046907255036,"[49, 58, 63, 61, 54, 49, 56, 63, 68, 63, 47, 42, 58, 63, 63, 63, 61, 58, 65, 70, 58, 21, -7, 2, 16, 21, 25, 28, 23, 25, 37, 37, 28, 25, 25, 23, 25, 23, 18, 9, -4, -11, -14, -11, -4, -4, -4, 11, 35, 51, 44, 23, 11, 11, 21, 28, 30, 30, 37, 42, 44, 42, 39, 190, 635, 1117, 1053, 268, -296, -37, 150, -51, -56]"
1713643047468384415,"[49, 0, -18, 32, 32, 25, 47, 39, 32, 56, 70, 77, 96, 103, 96, 101, 129, 164, 190, 216, 244, 265, 275, 279, 272, 244, 197, 141, 82, 37, 2, -23, -39, -56, -63, -51, -44, -42, -28, -16, -14, -7, 2, 9, 18, 28, 30, 32, 39, 44, 51, 56, 56, 56, 58, 61, 68, 70, 68, 68, 65, 68, 75, 75, 68, 51, 35, 30, 37, 44, 42, 32, 23]"
1713643048029518885,"[23, 21, 9, 0, -11, -25, -23, -35, -51, -42, -32, -32, -21, -2, 0, -4, 2, 11, 18, 28, 32, 30, 35, 42, 30, 32, 63, 79, 77, 70, 63, 58, 63, 65, 61, 68, 77, 87, 89, 79, 65, 134, 465, 983, 1213, 689, -124, -178, 176, 94, -44, 56, 75, 28, 65, 91, 63, 54, 77, 91, 98, 117, 129, 129, 141, 166, 190, 214, 232, 251, 277, 310, 322]"
1713643048590653351,"[308, 293, 293, 279, 244, 185, 122, 58, 7, -14, -21, -28, -35, -51, -70, -70, -58, -44, -35, -35, -35, -16, 2, 9, 16, 16, 16, 30, 42, 49, 51, 49, 44, 49, 61, 65, 63, 58, 58, 68, 72, 75, 70, 68, 72, 82, 77, 63, 54, 56, 61, 61, 56, 51, 51, 51, 49, 39, 32, 35, 30, 23, 21, 25, 28, 21, 9, 18, 37, 39, 28, 11, 4]"
1713643049151787817,"[7, 14, 18, 25, 30, 23, 11, 0, 0, 89, 420, 910, 1088, 515, -258, -228, 108, -14, -124, -7, 7, -35, 0, 25, 16, 28, 49, 56, 65, 79, 91, 101, 119, 141, 155, 176, 204, 228, 244, 258, 277, 296, 298, 289, 265, 216, 152, 96, 47, 2, -21, -30, -39, -37, -30, -28, -23, -18, -32, -47, -37, -23, -18, -11, -2, 9, 16, 18, 28, 35, 28, 23, 32]"
1713643049712932453,"[35, 32, 35, 42, 47, 49, 49, 37, 18, 21, 42, 42, 35, 39, 44, 49, 56, 61, 58, 58, 63, 68, 75, 77, 72, 70, 72, 75, 65, 47, 35, 37, 39, 37, 30, 25, 11, 2, 11, 18, 21, 32, 49, 54, 54, 42, 25, 18, 23, 25, 21, 4, -4, 4, 7, -4, -4, 117, 519, 1030, 1095, 390, -303, -143, 131, -47, -112, 4, 0, -28, 16, 30, 14]"
1713643050274056749,"[30, 56, 65, 77, 82, 68, 70, 101, 127, 143, 164, 183, 209, 246, 275, 293, 301, 296, 291, 270, 214, 138, 79, 28, -7, -23, -32, -37, -39, -42, -32, -18, -9, -2, -2, -2, 9, 25, 32, 37, 37, 35, 39, 32, 14, 16, 23, 18, 23, 37, 44, 44, 35, 23, 28, 42, 51, 49, 44, 47, 54, 61, 63, 65, 61, 61, 70, 75, 77, 79, 75, 75, 79]"
1713643050835191215,"[84, 84, 89, 87, 79, 84, 94, 89, 65, 39, 35, 32, 25, 23, 25, 30, 39, 32, 14, -2, -9, -9, -4, 0, 7, 9, 9, 14, 14, 7, 63, 352, 856, 1131, 672, -148, -284, 44, -4, -143, -49, -9, -49, -30, -7, -7, 2, 21, 32, 39, 51, 65, 84, 98, 112, 136, 164, 188, 209, 239, 268, 284, 301, 310, 303, 284, 242, 181, 124, 72, 28, 4, -9]"
1713643051396320594,"[-21, -23, -30, -39, -35, -37, -42, -30, -18, -18, -7, 2, 4, 14, 25, 28, 32, 37, 42, 51, 58, 51, 51, 56, 61, 65, 65, 61, 56, 42, 35, 51, 58, 44, 44, 47, 47, 54, 61, 58, 58, 61, 65, 72, 79, 79, 75, 77, 84, 89, 89, 87, 87, 89, 94, 98, 98, 96, 110, 127, 122, 103, 79, 61, 54, 54, 37, 16, 2, 0, 2, 4, -4]"
1713643051957449973,"[28, 279, 769, 1105, 750, -75, -301, 54, 35, -166, -77, -4, -54, -37, -7, -18, -7, 21, 32, 37, 37, 25, 28, 56, 79, 87, 96, 129, 166, 199, 232, 254, 261, 270, 282, 270, 223, 162, 101, 51, 14, -11, -23, -32, -42, -37, -25, -11, 0, -2, -7, 4, 21, 32, 37, 35, 32, 32, 28, 32, 42, 32, 28, 44, 58, 54, 54, 56, 54, 56, 63, 68, 70]"
1713643052518564095,"[56, 51, 65, 82, 84, 79, 72, 70, 79, 87, 84, 72, 51, 32, 16, 18, 28, 18, 18, 44, 70, 70, 54, 37, 35, 42, 42, 42, 42, 37, 35, 37, 37, 28, 68, 329, 801, 1051, 611, -174, -312, 49, 39, -122, -39, 16, -32, -21, 4, -11, -7, 23, 25, 28, 54, 65, 75, 98, 115, 127, 150, 183, 216, 246, 272, 291, 305, 310, 303, 272, 216, 148, 84]"
1713643053079698561,"[28, -11, -32, -49, -56, -58, -68, -87, -110, -124, -110, -94, -89, -75, -70, -84, -65, -37, -39, -35, -16, -11, -7, 2, 7, 11, 18, 18, 25, 25, 25, 39, 49, 44, 47, 56, 58, 58, 61, 54, 42, 39, 47, 49, 51, 61, 65, 65, 70, 77, 91, 108, 117, 103, 79, 70, 75, 79, 84, 84, 82, 79, 79, 84, 84, 84, 244, 700, 1166, 1044, 228, -291, -21]"
1713643053640838110,"[119, -79, -61, 30, -23, -44, -14, -21, -23, -7, -7, -16, -16, 4, 25, 39, 56, 68, 82, 112, 155, 190, 211, 228, 242, 254, 258, 242, 202, 136, 65, 0, -39, -54, -68, -89, -89, -72, -61, -54, -47, -44, -39, -25, -11, 0, 9, 7, 9, 23, 35, 39, 42, 39, 42, 54, 58, 56, 56, 54, 51, 61, 63, 44, 18, 4, 16, 32, 35, 39, 37, 35, 47]"
1713643054201967489,"[56, 58, 61, 61, 58, 63, 72, 75, 75, 58, 39, 51, 63, 68, 72, 68, 61, 70, 77, 82, 94, 87, 68, 65, 82, 87, 82, 79, 84, 101, 122, 131, 117, 94, 79, 84, 91, 91, 87, 84, 87, 96, 101, 89, 84, 242, 691, 1171, 1079, 263, -286, -21, 143, -68, -77, 7, -54, -96, -68, -54, -51, -35, -25, -18, -7, 9, 28, 44, 58, 72, 94, 119, 157]"
1713643054763096872,"[185, 204, 225, 242, 254, 261, 239, 190, 141, 89, 35, -2, -35, -68, -84, -77, -72, -70, -63, -49, -39, -37, -23, -9, -7, 0, 9, 14, 21, 28, 28, 37, 51, 47, 47, 56, 56, 56, 63, 61, 63, 63, 58, 61, 61, 44, 42, 51, 44, 25, 11, 16, 25, 28, 32, 44, 49, 47, 51, 54, 58, 63, 65, 65, 75, 72, 72, 82, 87, 82, 84, 87, 89]"
1713643055324226251,"[94, 96, 91, 89, 82, 79, 84, 84, 82, 75, 58, 61, 75, 72, 72, 89, 105, 115, 108, 82, 56, 49, 56, 61, 54, 42, 32, 30, 18, 2, 28, 254, 733, 1107, 820, -9, -329, 4, 44, -143, -75, -11, -82, -84, -39, -42, -37, -7, 7, 16, 25, 35, 56, 77, 94, 110, 127, 150, 183, 218, 246, 263, 270, 275, 284, 284, 251, 188, 112, 49, 14, -9, -28]"
1713643055885355630,"[-39, -49, -47, -32, -23, -16, -21, -39, -35, -11, -2, 2, 9, 9, 21, 32, 37, 44, 44, 37, 44, 56, 58, 56, 51, 49, 54, 42, 32, 42, 42, 30, 42, 54, 47, 23, 4, 7, 18, 30, 39, 42, 37, 37, 47, 56, 58, 61, 58, 56, 63, 72, 75, 65, 49, 47, 56, 61, 54, 32, 16, 9, 4, 9, 16, 14, 9, 9, 16, 39, 58, 63, 51]"
1713643056446505357,"[32, 23, 28, 32, 30, 30, 35, 39, 47, 42, 11, 0, 164, 597, 1046, 966, 204, -319, -65, 101, -87, -82, 11, -23, -32, 14, 21, 4, 2, 9, 23, 39, 54, 65, 77, 98, 115, 136, 162, 183, 209, 239, 258, 275, 291, 291, 279, 254, 204, 145, 79, 14, -18, -37, -56, -56, -47, -49, -42, -30, -28, -18, -7, -4, 2, 14, 16, 23, 28, 30, 39, 42, 42]"
1713643057007639823,"[51, 54, 49, 58, 61, 51, 49, 39, 25, 18, 14, 7, 0, -7, -2, 11, 14, -2, -7, -9, -37, -49, -35, -30, -35, -30, -21, -14, -9, -9, -7, 0, 9, 16, 18, 21, 23, 23, 30, 42, 47, 30, 16, 25, 37, 39, 47, 63, 77, 89, 89, 70, 56, 54, 58, 58, 68, 75, 75, 72, 72, 65, 82, 279, 731, 1114, 893, 108, -258, 61, 152, -47, -11]"
1713643057568774285,"[61, 7, 9, 51, 23, 0, 32, 54, 61, 75, 77, 82, 89, 84, 98, 129, 145, 166, 204, 237, 261, 277, 277, 277, 277, 249, 197, 134, 70, 30, 7, -18, -42, -58, -65, -54, -39, -32, -21, -16, -18, -9, 9, 18, 25, 30, 25, 32, 44, 49, 56, 56, 49, 54, 65, 70, 70, 65, 61, 65, 75, 79, 77, 63, 37, 28, 32, 37, 37, 21, 7, 7, 4]"
1713643058129903668,"[2, 4, 0, -4, 2, -4, -30, -47, -49, -49, -37, -23, -16, -11, -11, -9, 2, 14, 18, 23, 25, 32, 37, 39, 47, 61, 63, 47, 32, 35, 42, 42, 39, 44, 58, 65, 65, 61, 51, 138, 484, 968, 1084, 482, -211, -134, 162, 35, -49, 54, 49, 11, 51, 75, 58, 56, 58, 63, 79, 94, 98, 112, 129, 141, 157, 183, 202, 228, 254, 272, 284, 277, 258]"
1713643058691033047,"[258, 246, 197, 148, 94, 32, -4, -23, -54, -61, -54, -77, -77, -42, -44, -75, -75, -42, -18, -25, -23, -2, 2, -2, 11, 16, 14, 23, 28, 30, 42, 42, 35, 37, 44, 47, 54, 54, 54, 54, 61, 65, 65, 61, 63, 68, 68, 61, 58, 58, 47, 44, 47, 42, 37, 35, 35, 32, 14, 0, 7, 21, 16, 0, -14, -4, 11, 23, 30, 42, 47, 35, 23]"
1713643059252162426,"[23, 28, 25, 30, 44, 39, 21, 11, 4, 11, 152, 562, 1011, 947, 218, -329, -91, 141, -28, -58, 49, 28, 2, 49, 65, 49, 61, 84, 94, 101, 112, 119, 134, 155, 169, 188, 218, 232, 244, 282, 308, 319, 333, 331, 308, 282, 235, 169, 110, 54, 9, -9, -21, -28, -25, -32, -58, -54, -25, -23, -30, -21, 2, 11, 11, 25, 28, 23, 35, 37, 16, 16, 32]"
1713643059813291805,"[35, 28, 35, 44, 54, 44, 35, 44, 54, 54, 49, 37, 30, 32, 39, 49, 49, 44, 49, 58, 65, 79, 91, 96, 98, 82, 63, 65, 61, 47, 42, 42, 42, 44, 42, 32, 25, 87, 376, 823, 957, 409, -301, -282, 75, 7, -115, -23, -18, -82, -47, -11, -21, -11, 11, 23, 37, 54, 63, 77, 94, 105, 124, 155, 185, 214, 244, 275, 305, 322, 317, 296, 256]"
1713643060374421184,"[195, 129, 63, 9, -28, -56, -68, -68, -79, -87, -79, -68, -58, -44, -44, -39, -21, -9, -4, 4, 4, 4, 14, 16, 23, 35, 35, 37, 42, 42, 44, 47, 47, 51, 56, 56, 63, 65, 58, 65, 68, 44, 23, 28, 37, 37, 39, 44, 58, 77, 89, 79, 47, 23, 28, 32, 32, 44, 44, 39, 51, 58, 54, 47, 103, 416, 950, 1187, 639, -171, -206, 136, 39]"
1713643060935550563,"[-89, 21, 47, -2, 23, 35, 7, 18, 42, 32, 28, 32, 39, 54, 68, 72, 77, 87, 108, 143, 174, 197, 211, 218, 223, 225, 197, 138, 70, 11, -30, -61, -77, -101, -136, -145, -124, -108, -91, -79, -77, -70, -61, -58, -56, -42, -37, -35, -21, -4, 2, 7, 7, 14, 25, 32, 39, 39, 32, 37, 49, 54, 61, 65, 58, 58, 68, 72, 77, 82, 75, 72, 84]"
1713643061496679946,"[91, 89, 70, 54, 63, 79, 79, 79, 72, 49, 51, 72, 77, 75, 75, 72, 75, 87, 91, 91, 87, 79, 87, 96, 96, 108, 117, 103, 84, 84, 72, 56, 58, 61, 49, 42, 56, 61, 54, 47, 42, 105, 432, 973, 1227, 700, -131, -204, 138, 47, -94, 11, 39, -7, 25, 54, 37, 39, 51, 49, 58, 70, 70, 70, 79, 89, 84, 82, 108, 136, 159, 190, 218]"
1713643062057809325,"[225, 225, 225, 209, 169, 112, 51, -2, -39, -63, -75, -98, -119, -112, -98, -91, -75, -63, -63, -70, -84, -75, -49, -44, -47, -49, -51, -37, -23, -21, -11, -2, -2, 4, 16, 18, 21, 28, 30, 35, 42, 44, 49, 54, 49, 58, 68, 65, 68, 77, 72, 75, 82, 79, 82, 91, 89, 72, 58, 68, 82, 79, 75, 79, 84, 84, 87, 91, 96, 98, 96, 91, 103]"
1713643062618938704,"[117, 108, 96, 98, 105, 110, 112, 103, 94, 82, 82, 79, 58, 56, 87, 94, 68, 37, 28, 35, 39, 42, 51, 61, 65, 70, 65, 49, 72, 315, 811, 1180, 863, 2, -312, 37, 70, -131, -75, -7, -54, -35, 4, -7, -7, 11, 18, 37, 42, 25, 30, 63, 91, 110, 129, 145, 169, 202, 235, 261, 272, 272, 270, 261, 232, 181, 110, 42, 0, -23, -42, -54, -56]"
1713643063180057913,"[-56, -56, -47, -32, -35, -54, -58, -51, -54, -44, -16, -16, -44, -44, -16, -2, 0, 4, 2, 2, 14, 21, 28, 30, 30, 35, 44, 49, 51, 54, 47, 51, 63, 65, 68, 70, 63, 70, 77, 65, 56, 56, 49, 54, 68, 72, 68, 68, 70, 75, 82, 79, 77, 82, 87, 91, 101, 112, 110, 87, 58, 44, 42, 37, 25, 14, 14, 21, 25, 23, 11, 14, 232]"
1713643063741197462,"[731, 1103, 780, -68, -357, 7, 51, -136, -68, -9, -79, -63, -11, -14, -11, 9, 16, 25, 39, 56, 79, 94, 101, 117, 148, 176, 202, 232, 251, 275, 291, 284, 275, 256, 211, 148, 94, 47, 0, -35, -51, -61, -61, -54, -54, -56, -44, -32, -25, -11, -7, -9, 0, 7, 11, 23, 30, 37, 39, 37, 42, 54, 51, 32, 7, -16, -7, 14, 11, 16, 28, 23, 28]"
1713643064302326841,"[37, 35, 35, 47, 47, 42, 39, 28, 25, 39, 35, 21, 18, 28, 32, 28, 16, 11, 14, 9, 4, -4, -16, -9, 0, -2, 2, 11, 16, 14, 14, 30, 58, 68, 63, 61, 49, 35, 39, 49, 47, 44, 51, 56, 63, 63, 49, 87, 371, 898, 1220, 792, -63, -246, 98, 63, -108, -42, -7, -49, -25, 14, 16, 23, 35, 39, 51, 70, 87, 101, 110, 119, 143]"
1713643064863456224,"[171, 199, 223, 232, 237, 256, 286, 296, 291, 268, 223, 171, 110, 42, -7, -37, -56, -58, -51, -44, -42, -44, -35, -18, -9, -2, 4, 4, 4, 16, 30, 37, 37, 32, 35, 47, 56, 58, 58, 47, 49, 63, 68, 68, 61, 47, 47, 58, 63, 54, 28, 11, 30, 44, 44, 47, 47, 39, 49, 65, 58, 44, 44, 44, 42, 44, 42, 39, 25, 11, 18, 30, 30]"
1713643065424585603,"[32, 32, 23, 21, 18, 16, 28, 35, 28, 30, 49, 68, 77, 61, 42, 32, 30, 37, 42, 37, 42, 58, 63, 63, 61, 49, 138, 508, 1023, 1161, 545, -206, -155, 169, 42, -61, 42, 42, 0, 39, 65, 63, 70, 58, 49, 70, 89, 96, 110, 127, 143, 164, 190, 216, 239, 265, 293, 312, 329, 333, 322, 296, 249, 188, 131, 79, 35, -7, -37, -47, -37, -35, -30]"
1713643065985714982,"[-23, -16, -7, 0, 4, 9, 18, 25, 32, 39, 39, 44, 56, 51, 47, 49, 35, 21, 30, 37, 35, 37, 39, 47, 49, 49, 47, 37, 30, 42, 47, 42, 49, 61, 49, 25, 16, 30, 35, 30, 37, 49, 51, 49, 58, 58, 51, 61, 79, 87, 87, 72, 49, 30, 23, 16, 4, 2, 2, -4, -7, 0, -4, 9, 206, 672, 1070, 860, 51, -366, -30, 110, -94]"
1713643066546844361,"[-68, 25, -18, -23, 25, 25, 16, 23, 18, 30, 58, 68, 72, 89, 103, 127, 152, 171, 181, 199, 235, 265, 282, 291, 286, 263, 225, 166, 84, 7, -37, -68, -84, -84, -77, -77, -79, -72, -58, -44, -35, -28, -25, -21, -7, 7, 16, 21, 16, 14, 11, 11, 23, 25, 18, 23, 35, 37, 39, 42, 37, 37, 49, 58, 58, 58, 56, 56, 63, 68, 72, 70, 63]"
1713643067107973740,"[63, 75, 79, 79, 77, 68, 70, 82, 79, 63, 37, 21, 30, 44, 49, 51, 49, 37, 32, 35, 28, 7, -7, -14, -7, 9, 18, 18, 2, -18, -21, -11, -4, -2, -4, -2, 7, 18, 21, 9, 47, 329, 851, 1150, 689, -155, -284, 75, 25, -122, -18, 16, -37, -11, 28, 23, 35, 51, 51, 56, 77, 94, 105, 117, 129, 148, 174, 202, 225, 251, 275, 293, 308]"
1713643067669103119,"[305, 286, 270, 232, 171, 115, 70, 16, -32, -54, -58, -58, -49, -51, -68, -70, -54, -44, -30, -14, -9, -7, 4, 16, 23, 25, 30, 37, 39, 47, 58, 63, 51, 39, 42, 54, 58, 58, 63, 68, 65, 68, 75, 72, 70, 77, 84, 91, 91, 87, 91, 98, 91, 89, 96, 91, 91, 101, 101, 94, 96, 105, 110, 105, 84, 72, 79, 91, 103, 108, 89, 58, 39]"
1713643068230232502,"[37, 39, 28, 23, 23, 4, -14, -25, -37, 4, 277, 778, 1093, 700, -131, -331, 42, 44, -127, -39, 18, -32, -14, 21, 7, 16, 39, 44, 54, 70, 84, 103, 119, 134, 152, 176, 204, 235, 265, 289, 305, 319, 331, 331, 305, 249, 185, 129, 75, 30, 0, -23, -32, -28, -28, -37, -42, -35, -30, -21, -4, 2, 7, 9, 14, 25, 35, 42, 47, 42, 42, 44, 28]"
1713643068791361881,"[11, 16, 21, 21, 28, 37, 39, 30, 9, 4, 21, 30, 35, 39, 25, 16, 28, 39, 49, 47, 39, 44, 58, 63, 65, 63, 58, 61, 72, 79, 79, 75, 70, 75, 87, 87, 89, 96, 105, 115, 112, 96, 77, 70, 70, 58, 37, 30, 35, 32, 18, 4, -2, 112, 519, 1032, 1067, 333, -336, -155, 96, -91, -141, -18, -35, -84, -63, -54, -54, -32, -14, -4, 7]"
1713643069352491260,"[25, 35, 51, 75, 94, 105, 119, 145, 181, 216, 235, 239, 235, 244, 244, 216, 164, 105, 49, 0, -35, -49, -61, -68, -65, -58, -49, -37, -30, -25, -21, -16, -2, 11, 14, 18, 25, 16, 9, 21, 28, 25, 30, 37, 39, 44, 47, 44, 47, 51, 58, 63, 58, 58, 68, 68, 65, 54, 30, 30, 44, 42, 47, 56, 56, 58, 63, 63, 68, 68, 58, 63, 72]"
1713643069913620639,"[70, 70, 77, 79, 79, 82, 87, 84, 68, 49, 44, 47, 47, 49, 47, 32, 30, 30, 18, 18, 21, 18, 30, 47, 61, 68, 49, 21, 14, 9, 7, 11, 16, 21, 30, 35, 30, 16, 91, 442, 976, 1175, 587, -206, -190, 141, 21, -91, 21, 25, -39, -16, 21, 16, 21, 37, 44, 56, 79, 91, 84, 82, 103, 134, 155, 181, 206, 230, 256, 286, 303, 308, 298]"
1713643070474750018,"[272, 232, 181, 127, 70, 7, -39, -47, -42, -44, -44, -42, -37, -25, -14, -4, 2, 7, 7, 7, 7, 11, 18, 18, 21, 32, 42, 47, 44, 39, 47, 58, 58, 63, 63, 56, 58, 68, 72, 75, 72, 65, 49, 32, 37, 54, 51, 42, 51, 63, 63, 54, 39, 37, 47, 56, 61, 65, 63, 49, 44, 49, 56, 58, 51, 35, 30, 35, 28, 23, 18, 18, 28]"
1713643071035879397,"[37, 37, 39, 39, 35, 39, 58, 82, 79, 42, 4, -9, -4, 9, 16, 9, 7, 23, 42, 49, 37, 30, 181, 627, 1114, 1065, 303, -284, -54, 159, -30, -49, 58, 25, -4, 18, 11, 18, 44, 49, 56, 77, 82, 75, 84, 112, 136, 157, 181, 202, 228, 261, 289, 308, 324, 329, 319, 291, 237, 171, 115, 63, 25, 7, -2, -14, -25, -23, 0, 9, 2, 14, 28]"
1713643071597008780,"[18, 14, 7, 4, 21, 25, 4, 7, 28, 25, 23, 35, 42, 49, 54, 49, 44, 49, 47, 51, 63, 63, 63, 65, 65, 72, 68, 42, 16, 9, 14, 21, 23, 9, -11, -18, -23, -28, -23, -11, -9, -14, -7, 4, 7, 4, 7, 11, 18, 25, 28, 30, 47, 68, 77, 75, 56, 39, 37, 42, 49, 58, 58, 56, 56, 49, 28, 37, 230, 684, 1110, 950, 150]"
1713643072158138159,"[-310, -4, 136, -70, -47, 56, 11, -4, 35, 18, 7, 37, 58, 63, 65, 65, 82, 110, 131, 143, 145, 145, 174, 216, 239, 246, 254, 265, 272, 263, 232, 176, 103, 44, 9, -18, -42, -49, -54, -56, -47, -35, -28, -23, -23, -18, -4, 7, 14, 21, 16, 21, 37, 44, 49, 51, 47, 37, 39, 47, 49, 47, 47, 51, 54, 56, 63, 61, 54, 56, 68, 68, 58]"
1713643072719267538,"[47, 42, 47, 51, 47, 35, 23, 9, 7, 21, 25, 18, -4, -39, -49, -39, -44, -49, -42, -39, -32, -16, -4, 0, 0, 0, 14, 39, 63, 72, 51, 32, 32, 42, 49, 51, 49, 47, 56, 65, 65, 54, 108, 409, 924, 1182, 696, -124, -230, 117, 58, -87, 14, 47, -4, 23, 63, 56, 61, 72, 75, 84, 101, 115, 127, 136, 145, 164, 190, 216, 239, 263, 286]"
1713643073280396917,"[308, 326, 336, 326, 298, 237, 148, 70, 18, -32, -77, -94, -96, -89, -77, -77, -75, -61, -49, -44, -32, -18, -9, -7, -2, 11, 21, 23, 28, 35, 32, 39, 51, 49, 47, 54, 54, 58, 63, 49, 37, 47, 51, 51, 56, 56, 61, 65, 63, 63, 68, 68, 72, 77, 70, 77, 79, 65, 58, 63, 61, 56, 54, 44, 49, 61, 61, 54, 32, 14, 9, -7, -32]"
1713643073841526296,"[-30, -18, -11, -2, 2, -4, -11, 94, 484, 954, 964, 275, -348, -169, 105, -47, -103, 9, -2, -35, 11, 32, 21, 35, 49, 56, 72, 91, 101, 105, 110, 124, 145, 174, 199, 230, 256, 277, 303, 319, 317, 296, 258, 204, 145, 89, 37, -7, -32, -39, -37, -30, -28, -32, -30, -18, -4, 2, 4, 4, 11, 18, 14, 9, -2, -25, -23, 0, 7, 11, 16, 11, 14]"
1713643074402655675,"[28, 32, 35, 28, 4, -2, 14, 28, 28, 25, 23, 28, 44, 51, 49, 51, 49, 51, 61, 65, 65, 58, 47, 51, 63, 68, 70, 70, 63, 65, 77, 84, 84, 82, 75, 82, 105, 122, 124, 110, 82, 58, 56, 63, 63, 51, 39, 35, 35, 25, 7, 21, 237, 719, 1114, 849, -4, -383, -54, 23, -159, -103, -25, -77, -72, -21, -16, -16, 2, 7, 16, 37, 54]"
1713643074963790145,"[68, 79, 91, 108, 136, 166, 188, 197, 209, 239, 265, 272, 263, 232, 195, 145, 87, 39, -2, -37, -51, -58, -58, -49, -44, -44, -35, -25, -16, -4, 0, 2, 11, 18, 25, 35, 39, 39, 47, 49, 54, 63, 63, 56, 49, 39, 44, 51, 49, 47, 32, 11, 16, 32, 30, 32, 42, 42, 44, 54, 54, 56, 63, 63, 68, 72, 72, 77, 82, 77, 82, 89, 87]"
1713643075524924611,"[89, 94, 89, 77, 68, 70, 79, 79, 77, 77, 65, 54, 63, 68, 63, 77, 89, 82, 61, 35, 21, 21, 14, 9, 21, 23, 18, 21, 14, 16, 183, 625, 1084, 992, 202, -341, -72, 103, -96, -96, 7, -25, -51, -32, -35, -28, -7, 7, 21, 37, 47, 56, 75, 96, 117, 138, 157, 181, 211, 246, 275, 293, 301, 298, 289, 268, 216, 138, 65, 18, -4, -25, -37]"
1713643076086043816,"[-44, -51, -47, -32, -23, -18, -7, -14, -35, -18, 4, 4, 4, 9, 14, 21, 32, 42, 42, 39, 42, 51, 56, 56, 54, 49, 39, 37, 47, 49, 47, 49, 54, 61, 54, 28, 16, 25, 37, 42, 47, 58, 61, 54, 58, 68, 75, 79, 70, 61, 72, 89, 94, 94, 89, 79, 84, 96, 89, 72, 63, 63, 56, 56, 70, 75, 75, 77, 72, 49, 25, 21, 21]"
1713643076647173195,"[14, 18, 30, 35, 30, 30, 25, 30, 176, 599, 1053, 985, 235, -345, -108, 134, -47, -91, 2, -18, -30, 11, 16, 7, 25, 47, 56, 61, 54, 51, 72, 96, 117, 136, 157, 183, 214, 242, 272, 293, 303, 305, 296, 263, 206, 143, 82, 32, -9, -42, -63, -70, -65, -61, -56, -44, -35, -32, -28, -21, -14, -2, 7, 9, 14, 23, 25, 32, 42, 42, 42, 47, 47]"
1713643077208302574,"[49, 54, 51, 54, 58, 58, 58, 63, 58, 49, 49, 56, 51, 42, 28, 28, 37, 39, 42, 47, 39, 21, 7, 14, 23, 18, 7, 9, 16, 14, 16, 11, 4, 2, 0, -7, -4, 0, 0, 7, 0, -18, -11, 18, 37, 39, 30, 11, 4, 7, 14, 23, 25, 25, 30, 35, 37, 28, 82, 395, 926, 1199, 707, -131, -239, 115, 47, -103, 2, 37, -16, 9, 35]"
1713643077769431953,"[21, 28, 54, 58, 54, 44, 51, 77, 98, 108, 122, 141, 162, 185, 197, 211, 237, 254, 263, 268, 254, 209, 145, 82, 35, 0, -28, -44, -58, -63, -56, -54, -63, -61, -47, -42, -32, -14, -4, -7, -9, -2, 11, 18, 25, 30, 28, 30, 44, 51, 51, 49, 44, 44, 54, 58, 58, 58, 51, 54, 63, 68, 70, 65, 51, 51, 63, 68, 68, 68, 54, 44, 56]"
1713643078330566423,"[61, 54, 42, 25, 23, 23, 7, -25, -51, -58, -44, -35, -32, -23, -25, -28, -16, -4, 0, 4, 7, 4, 7, 2, 2, 14, 16, 11, 23, 47, 70, 77, 70, 54, 42, 44, 54, 56, 51, 54, 63, 70, 72, 63, 58, 202, 637, 1126, 1088, 317, -279, -42, 166, -28, -49, 47, 9, -9, 39, 49, 42, 56, 65, 68, 84, 103, 108, 117, 131, 148, 166, 183, 181]"
1713643078891700889,"[190, 225, 256, 272, 289, 296, 284, 254, 206, 150, 91, 25, -30, -58, -82, -94, -84, -77, -75, -65, -54, -44, -32, -25, -23, -18, -11, 0, 7, 9, 18, 25, 28, 35, 44, 39, 42, 49, 49, 51, 51, 51, 56, 58, 54, 54, 42, 32, 39, 37, 23, 32, 37, 25, 23, 23, 9, 0, -2, 2, 9, 11, 11, 18, 14, -9, -11, 4, 7, 2, 9, 18, 30]"
1713643079452820094,"[35, 32, 35, 35, 39, 35, 25, 28, 42, 47, 49, 56, 61, 58, 54, 58, 77, 91, 79, 54, 42, 51, 65, 68, 68, 68, 70, 77, 79, 72, 183, 576, 1067, 1121, 442, -237, -101, 157, -18, -75, 51, 44, 7, 39, 54, 51, 77, 94, 89, 91, 108, 122, 134, 150, 169, 181, 192, 202, 218, 249, 277, 289, 305, 319, 310, 284, 235, 164, 91, 25, -21, -39, -54]"
1713643080013969821,"[-72, -72, -54, -42, -39, -47, -61, -58, -37, -30, -21, -14, -14, -7, 7, 18, 23, 25, 23, 30, 42, 44, 51, 47, 37, 44, 49, 32, 11, 4, 9, 9, 2, -2, -4, -14, -21, -11, 0, 4, 4, 2, 2, 9, 16, 23, 28, 21, 21, 25, 11, -4, 2, 7, 9, 32, 61, 70, 61, 35, 4, 0, 18, 28, 23, 25, 32, 39, 47, 47, 44, 185, 620]"
1713643080575104287,"[1107, 1074, 308, -301, -70, 152, -37, -56, 49, 0, -35, 16, 32, 28, 47, 58, 61, 72, 87, 87, 87, 103, 127, 143, 169, 204, 235, 261, 289, 308, 319, 326, 312, 270, 214, 143, 84, 39, 0, -25, -35, -39, -56, -75, -72, -58, -49, -44, -32, -23, -23, -28, -30, -21, -7, 0, 4, 16, 23, 25, 32, 39, 39, 44, 49, 47, 47, 49, 47, 54, 58, 58, 61]"
1713643081136238753,"[63, 63, 68, 68, 58, 42, 25, 14, 21, 21, -2, -21, -23, -25, -18, -9, -9, -9, -4, 2, 9, 16, 16, 18, 21, 28, 35, 39, 42, 44, 44, 51, 61, 63, 47, 18, 16, 35, 44, 42, 56, 77, 84, 77, 68, 56, 44, 47, 54, 61, 65, 72, 72, 70, 68, 63, 155, 524, 1055, 1211, 578, -185, -129, 174, 23, -72, 47, 54, 14, 51, 63, 44, 65]"
1713643081697368132,"[89, 77, 65, 61, 58, 77, 103, 119, 136, 152, 174, 206, 242, 270, 291, 298, 303, 308, 293, 251, 185, 115, 61, 30, 2, -14, -23, -39, -61, -58, -37, -25, -25, -30, -32, -18, -4, 2, 4, 2, 11, 25, 30, 39, 42, 35, 39, 56, 58, 56, 51, 47, 51, 61, 65, 68, 63, 56, 61, 70, 75, 75, 70, 61, 51, 42, 35, 37, 32, 16, 14, 16, 9]"
1713643082258497511,"[4, 4, 2, 9, 18, 23, 23, 18, 18, 28, 35, 35, 23, 9, 11, 23, 28, 32, 37, 37, 28, 11, 4, 16, 18, 4, 9, 28, 37, 39, 39, 54, 77, 91, 89, 72, 56, 54, 63, 65, 70, 75, 75, 75, 75, 68, 82, 270, 738, 1173, 992, 178, -258, 39, 148, -58, -44, 37, 7, 9, 39, 37, 37, 58, 70, 65, 79, 103, 110, 117, 136, 143, 162]"
1713643082819626890,"[192, 202, 230, 293, 317, 310, 322, 324, 305, 270, 206, 148, 91, 2, -63, -70, -75, -96, -96, -84, -70, -58, -54, -47, -35, -32, -25, -14, -4, 2, 9, 9, 14, 23, 28, 35, 39, 37, 35, 42, 49, 54, 54, 54, 49, 44, 54, 54, 32, 14, 14, 16, 25, 28, 16, 0, -7, -11, 0, 11, 4, 0, 2, 7, 9, 16, 16, 9, 7, 25, 42, 37, 32]"
1713643083380756269,"[39, 42, 39, 49, 51, 35, 2, -11, 4, 23, 28, 28, 21, 7, 9, 23, 35, 37, 32, 49, 79, 91, 84, 68, 47, 42, 54, 63, 68, 70, 70, 68, 70, 61, 112, 402, 900, 1185, 743, -94, -239, 115, 56, -101, 4, 51, -2, 18, 44, 32, 49, 72, 75, 77, 89, 105, 115, 131, 152, 164, 169, 195, 230, 258, 286, 303, 310, 322, 326, 312, 265, 183, 87]"
1713643083941885648,"[28, 2, -30, -56, -65, -72, -70, -56, -47, -47, -58, -70, -51, -28, -21, -18, -18, -30, -39, -54, -68, -82, -96, -101, -91, -89, -84, -79, -79, -89, -91, -84, -72, -68, -68, -61, -47, -39, -32, -21, -21, -21, -9, 4, 11, 14, 14, 16, 28, 37, 42, 42, 39, 44, 54, 63, 63, 63, 65, 65, 72, 75, 58, 51, 47, 25, 23, 47, 44, 37, 49, 61, 56]"
1713643084503015027,"[61, 79, 98, 108, 101, 87, 70, 51, 42, 54, 58, 58, 63, 65, 65, 61, 79, 296, 778, 1159, 891, 54, -312, 37, 129, -72, -23, 63, 14, 18, 61, 54, 58, 84, 84, 89, 105, 110, 122, 141, 155, 171, 190, 206, 235, 268, 296, 319, 338, 341, 341, 331, 289, 214, 138, 84, 37, -14, -68, -94, -89, -82, -77, -65, -58, -54, -44, -37, -28, -16, -9, -7, 2]"
1713643085064159669,"[11, 14, 7, -2, -16, -32, -32, -21, -23, -35, -47, -54, -58, -58, -54, -54, -54, -42, -30, -25, -21, -16, -16, -11, 2, 11, 14, 11, 14, 21, 30, 37, 37, 37, 49, 70, 91, 94, 75, 49, 39, 49, 56, 51, 42, 30, 32, 44, 51, 47, 96, 373, 851, 1098, 630, -164, -265, 91, 44, -98, 2, 42, -11, 7, 39, 37, 49, 70, 70, 70, 87, 105, 119]"
1713643085625273789,"[136, 150, 152, 157, 188, 228, 258, 279, 296, 312, 324, 322, 296, 228, 136, 75, 37, -4, -35, -51, -68, -63, -51, -44, -39, -37, -37, -25, -14, -4, 2, 4, 2, 14, 21, 14, 9, 14, 16, 21, 32, 37, 37, 23, 0, -7, 7, 16, 14, 14, 16, 23, 32, 39, 39, 35, 37, 47, 54, 51, 51, 51, 49, 54, 58, 63, 54, 28, 18, 35, 39, 21, 9]"
1713643086186403168,"[4, 0, 2, 11, 11, 7, 9, 16, 30, 58, 63, 18, -9, -2, 4, 4, -4, -11, 0, 16, 39, 49, 23, 124, 533, 1044, 1117, 435, -284, -171, 117, -35, -103, 9, 7, -28, -14, -21, -21, 2, 11, 30, 51, 56, 65, 82, 98, 115, 134, 157, 192, 221, 244, 275, 296, 308, 322, 319, 279, 216, 155, 96, 49, 14, -16, -35, -32, -25, -25, -28, -18, -9, -4]"
1713643086747532547,"[2, 11, 16, 23, 32, 35, 35, 32, 18, 11, 25, 37, 39, 37, 37, 44, 47, 32, 21, 25, 32, 35, 39, 44, 44, 44, 49, 54, 49, 25, 11, 21, 28, 28, 37, 44, 42, 42, 51, 56, 63, 65, 61, 58, 65, 72, 77, 77, 72, 65, 61, 70, 72, 63, 49, 42, 51, 56, 49, 47, 37, 18, 14, 42, 70, 68, 44, 25, 21, 25, 32, 32, 25]"
1713643087308661926,"[23, 35, 44, 44, 28, 39, 298, 825, 1154, 743, -103, -317, 32, 37, -119, -32, 11, -47, -25, 18, 16, 14, 9, -9, 7, 44, 56, 61, 79, 96, 112, 143, 174, 202, 225, 249, 275, 301, 312, 312, 284, 228, 174, 122, 70, 32, -4, -37, -37, -30, -30, -28, -25, -21, -9, 2, 9, 14, 16, 21, 28, 35, 47, 56, 47, 42, 51, 56, 63, 77, 70, 56, 54]"
1713643087869791305,"[49, 47, 51, 47, 42, 49, 61, 61, 42, 28, 32, 42, 49, 54, 54, 35, 14, 25, 42, 42, 39, 42, 44, 51, 58, 61, 58, 58, 58, 63, 68, 63, 56, 58, 61, 54, 51, 54, 51, 49, 44, 37, 35, 30, 18, 21, 30, 47, 61, 61, 42, 25, 21, 28, 35, 30, 28, 32, 39, 49, 42, 30, 143, 526, 1013, 1081, 409, -279, -143, 131, -35, -96, 21]"
1713643088430920688,"[7, -28, 16, 35, 25, 39, 54, 49, 39, 35, 51, 58, 51, 72, 105, 124, 148, 183, 216, 249, 272, 282, 277, 258, 235, 197, 138, 75, 25, -11, -35, -44, -51, -51, -42, -37, -30, -18, -11, -7, -2, 4, 14, 23, 25, 28, 37, 37, 44, 61, 61, 54, 56, 56, 49, 44, 47, 49, 42, 44, 54, 61, 61, 58, 56, 61, 68, 72, 72, 58, 44, 47, 58]"
1713643088992050067,"[56, 30, -4, -9, -4, -11, -9, -4, -16, -32, -25, -11, -11, -23, -35, -32, -16, -7, 0, 2, 0, 7, 21, 25, 28, 37, 32, 30, 51, 63, 61, 63, 61, 61, 70, 82, 98, 115, 115, 105, 91, 82, 79, 84, 82, 70, 63, 70, 79, 72, 54, 75, 310, 799, 1180, 896, 56, -268, 79, 131, -56, 2, 61, 9, 28, 70, 61, 37, 35, 49, 65, 77, 89]"
1713643089553179446,"[91, 101, 124, 145, 155, 162, 178, 206, 239, 272, 293, 291, 270, 256, 239, 188, 127, 72, 21, -18, -37, -47, -47, -42, -47, -44, -30, -11, -4, -4, 0, 7, 14, 21, 28, 28, 18, 9, 11, 25, 39, 35, 16, 9, 21, 30, 28, 14, 0, -2, -4, -7, 0, 0, -7, 0, 9, 14, 16, 4, -18, -18, -2, 9, 9, 9, 14, 16, 11, 7, 9, 21, 23]"
1713643090114308825,"[23, 32, 44, 42, 42, 49, 49, 51, 58, 44, 32, 39, 51, 70, 89, 94, 84, 70, 58, 65, 72, 65, 70, 84, 84, 84, 89, 77, 119, 423, 931, 1159, 660, -134, -218, 143, 89, -61, 35, 72, 25, 51, 79, 70, 75, 94, 101, 108, 117, 124, 129, 129, 129, 141, 164, 190, 216, 251, 284, 298, 298, 301, 303, 282, 232, 171, 110, 51, 2, -21, -30, -39, -47]"
1713643090675438204,"[-44, -42, -32, -18, -14, -18, -32, -37, -23, -9, -2, 7, 11, 14, 23, 32, 37, 39, 35, 30, 32, 44, 42, 35, 28, 21, 25, 35, 35, 21, 9, 7, 4, 2, 4, 2, 0, 7, 14, 16, 16, 14, 14, 18, 4, -11, -4, 0, -4, 4, 16, 9, -2, 0, 9, 16, 21, 42, 65, 63, 58, 61, 56, 47, 49, 49, 49, 58, 68, 72, 72, 61, 56]"
1713643091236567583,"[141, 489, 1006, 1185, 595, -185, -176, 162, 58, -68, 25, 35, 0, 37, 54, 23, 18, 47, 63, 70, 82, 89, 91, 112, 138, 159, 178, 199, 221, 251, 291, 322, 331, 329, 319, 293, 232, 148, 84, 30, -18, -47, -63, -79, -77, -72, -70, -56, -42, -35, -28, -23, -21, -9, 4, 11, 14, 16, 21, 30, 39, 44, 47, 47, 47, 51, 61, 65, 61, 56, 58, 63, 65]"
1713643091797696966,"[65, 56, 47, 51, 56, 63, 54, 30, 18, 18, 25, 30, 28, 16, 9, 7, 2, 0, 2, 2, 4, 7, 11, 18, 18, 21, 23, 23, 9, -7, -7, 4, 4, -9, -9, 0, 11, 32, 56, 54, 39, 30, 25, 30, 35, 37, 42, 49, 51, 56, 54, 42, 141, 524, 1051, 1187, 531, -223, -136, 162, 7, -72, 44, 35, -4, 30, 39, 32, 54, 63, 65, 77, 89]"
1713643092358826345,"[103, 117, 127, 141, 159, 181, 211, 239, 261, 277, 284, 298, 312, 305, 277, 230, 166, 105, 61, 21, -14, -39, -65, -75, -72, -75, -72, -61, -54, -42, -28, -21, -16, -14, -4, 7, 16, 21, 21, 23, 32, 42, 49, 51, 49, 49, 51, 58, 63, 63, 58, 54, 61, 70, 75, 68, 49, 39, 51, 61, 61, 61, 56, 56, 68, 72, 75, 77, 70, 68, 70, 65, 63]"
1713643092919955724,"[65, 56, 47, 44, 44, 39, 18, -11, -18, 2, 7, 7, 14, 4, -25, -47, -42, -28, -21, -25, -21, -9, 0, 9, 14, 11, 30, 63, 72, 63, 44, 28, 30, 42, 49, 54, 51, 49, 56, 63, 51, 96, 390, 914, 1220, 764, -87, -239, 94, 35, -110, -4, 32, -16, 4, 32, 28, 39, 61, 65, 68, 77, 91, 110, 129, 141, 150, 169, 197, 228, 258, 284, 303]"
1713643093481085103,"[317, 331, 333, 315, 270, 204, 124, 47, 2, -23, -61, -89, -82, -72, -63, -51, -49, -44, -35, -23, -11, -4, -2, 2, 9, 18, 28, 32, 32, 37, 42, 47, 56, 58, 56, 56, 56, 56, 51, 37, 35, 47, 49, 49, 56, 56, 54, 51, 42, 42, 51, 47, 37, 28, 21, 16, 11, 9, 14, 16, 16, 18, 23, 23, 25, 32, 32, 35, 39, 37, 28, 18, 9]"
1713643094042209399,"[-7, -14, -2, 9, 9, 9, 14, 2, -11, -2, 11, 14, 23, 30, 39, 68, 82, 72, 58, 47, 44, 51, 58, 58, 61, 63, 68, 75, 65, 56, 228, 693, 1150, 1004, 185, -296, 0, 134, -65, -35, 61, 11, 2, 44, 49, 49, 68, 72, 77, 91, 105, 115, 127, 136, 148, 171, 202, 230, 251, 279, 298, 303, 310, 319, 305, 254, 181, 124, 77, 25, -14, -42, -54]"
1713643094603343865,"[-54, -44, -37, -32, -44, -58, -47, -28, -21, -18, -14, -9, -2, 14, 25, 25, 21, 28, 39, 30, 18, 9, 2, 4, 4, 0, -2, -14, -28, -21, -9, -9, -2, 0, -4, 0, 14, 18, 18, 21, 21, 25, 35, 42, 47, 44, 37, 42, 58, 65, 68, 65, 56, 47, 58, 68, 68, 61, 42, 30, 49, 63, 56, 49, 51, 68, 91, 108, 108, 87, 63, 58, 70]"
1713643095164447813,"[82, 82, 75, 70, 82, 94, 89, 72, 157, 538, 1046, 1105, 411, -286, -159, 134, -14, -79, 35, 23, -16, 25, 47, 42, 61, 75, 72, 82, 103, 115, 124, 138, 152, 169, 197, 225, 254, 286, 315, 333, 350, 359, 350, 310, 235, 159, 103, 51, 2, -30, -58, -94, -94, -70, -70, -70, -56, -49, -44, -32, -25, -23, -14, -7, 0, 11, 16, 21, 25, 28, 35, 30, 18]"
1713643095725572105,"[18, 21, 7, -16, -23, -21, -30, -37, -35, -28, -32, -47, -49, -37, -32, -30, -23, -21, -14, -4, -4, 2, 9, 11, 16, 21, 25, 30, 35, 35, 42, 49, 49, 54, 56, 44, 47, 70, 87, 94, 84, 68, 54, 32, 11, 16, 25, 25, 39, 49, 42, 35, 51, 261, 762, 1201, 978, 117, -310, 23, 131, -72, -35, 49, 2, 2, 42, 23, 14, 35, 47, 54, 72]"
1713643096286701484,"[87, 91, 103, 119, 141, 164, 185, 204, 216, 239, 277, 305, 312, 310, 291, 256, 202, 141, 79, 25, -14, -30, -35, -37, -35, -39, -47, -42, -25, -14, -9, -11, -11, 0, 14, 9, -11, -25, -11, 4, 11, 21, 25, 21, 23, 35, 42, 47, 44, 37, 39, 49, 54, 56, 56, 49, 51, 54, 44, 39, 37, 28, 28, 39, 44, 37, 25, 14, 7, 7, 11, 16, 11]"
1713643096847830863,"[4, 9, 21, 30, 32, 25, 21, 28, 37, 42, 42, 23, 7, 18, 35, 37, 35, 28, 21, 39, 70, 87, 84, 63, 44, 44, 54, 61, 61, 39, 18, 28, 47, 44, 28, 105, 465, 1013, 1220, 613, -197, -190, 134, 11, -91, 25, 30, -18, 9, 23, 11, 30, 47, 44, 54, 75, 89, 98, 110, 124, 143, 169, 197, 228, 254, 277, 301, 319, 333, 329, 301, 254, 192]"
1713643097408960242,"[131, 79, 35, 2, -16, -28, -28, -32, -56, -70, -56, -47, -39, -25, -21, -18, -14, -4, 7, 16, 16, 0, -21, -14, 7, 4, 11, 28, 28, 23, 35, 37, 30, 35, 42, 35, 37, 49, 54, 51, 39, 28, 39, 44, 37, 42, 54, 56, 56, 44, 32, 39, 49, 42, 30, 23, 16, 14, 16, 18, 18, 16, 16, 21, 25, 25, 28, 35, 42, 42, 44, 37, 25]"
1713643097970089621,"[18, 30, 39, 42, 42, 35, 21, 37, 72, 77, 63, 47, 37, 37, 35, 11, -2, 7, 16, 23, 30, 21, 42, 298, 825, 1218, 884, 4, -293, 58, 75, -119, -49, 18, -35, -23, 21, 21, 25, 47, 49, 51, 70, 89, 101, 112, 124, 138, 162, 190, 221, 249, 270, 291, 319, 336, 338, 322, 277, 216, 157, 105, 51, 0, -39, -49, -39, -35, -32, -32, -35, -23, -2]"
1713643098531219004,"[4, 7, 4, -14, -16, 2, 7, -9, -25, -25, -11, 2, 11, 18, 21, 18, 21, 35, 44, 42, 39, 30, 23, 23, 32, 39, 32, 18, 16, 28, 35, 35, 25, 16, 11, 11, 9, 14, 9, 2, 9, 23, 28, 25, 23, 23, 28, 37, 42, 44, 39, 39, 49, 51, 39, 30, 32, 35, 42, 51, 58, 58, 56, 61, 68, 72, 84, 101, 110, 105, 94, 79, 56]"
1713643099092348383,"[28, 23, 32, 42, 47, 51, 51, 42, 44, 206, 658, 1131, 1044, 230, -357, -98, 112, -87, -101, 9, -21, -35, 18, 25, 16, 32, 42, 54, 77, 87, 89, 105, 122, 138, 162, 185, 206, 235, 268, 293, 319, 333, 336, 326, 296, 237, 164, 96, 44, 9, -18, -37, -39, -39, -35, -28, -23, -14, -2, 0, 2, 9, 14, 18, 25, 18, 0, -4, 7, 18, 18, 14, 14]"
1713643099653462505,"[18, 18, 18, 16, 2, -11, -14, -18, -23, -30, -42, -37, -25, -21, -18, -18, -16, -2, 7, 7, 9, 14, 18, 30, 35, 32, 37, 39, 44, 58, 61, 56, 58, 65, 70, 72, 65, 54, 51, 61, 84, 105, 110, 94, 72, 65, 75, 82, 79, 82, 82, 84, 91, 94, 84, 119, 390, 900, 1199, 754, -101, -291, 75, 70, -91, 0, 51, -4, 2, 30, 30, 44, 58]"
1713643100214596971,"[56, 63, 84, 101, 112, 124, 119, 117, 145, 183, 216, 249, 270, 291, 319, 333, 331, 308, 251, 183, 124, 70, 21, -18, -47, -54, -51, -56, -61, -56, -56, -51, -32, -18, -14, -11, -11, -2, 11, 18, 25, 28, 25, 32, 44, 49, 49, 47, 42, 44, 51, 42, 18, 7, 2, -4, 2, 14, 14, 2, -16, -18, -16, -23, -18, -16, -23, -16, -4, 0, 0, -2, 0]"
1713643100775706002,"[7, 16, 23, 25, 23, 21, 25, 35, 47, 54, 47, 47, 49, 35, 25, 28, 25, 23, 23, 18, 23, 32, 25, 11, 54, 326, 853, 1213, 839, -37, -293, 75, 84, -103, -25, 37, -14, 4, 44, 30, 28, 49, 58, 68, 72, 61, 58, 79, 101, 117, 134, 148, 176, 209, 244, 275, 293, 298, 301, 286, 249, 190, 122, 63, 18, -16, -35, -42, -44, -44, -37, -35, -25]"
1713643101336835381,"[-16, -14, -9, -2, 2, 7, 4, -7, -4, -2, -16, -11, 4, 4, 9, 18, 21, 25, 30, 30, 35, 39, 37, 39, 44, 47, 49, 54, 54, 56, 58, 58, 63, 68, 65, 68, 65, 47, 28, 32, 37, 25, 9, 14, 25, 25, 18, 7, 2, 0, -2, -4, -2, -2, 0, 4, 14, 18, 16, 16, 30, 54, 70, 65, 44, 28, 25, 35, 42, 44, 39, 42, 47]"
1713643101897964764,"[44, 25, 14, 138, 545, 1055, 1100, 359, -315, -134, 110, -72, -105, 16, -7, -39, 2, 21, 16, 37, 51, 47, 56, 75, 87, 101, 115, 122, 136, 155, 159, 178, 209, 216, 230, 263, 279, 272, 249, 197, 131, 79, 37, -2, -32, -54, -58, -49, -39, -32, -30, -32, -23, -9, 2, 9, 11, 9, 16, 30, 37, 42, 44, 37, 35, 32, 35, 42, 39, 35, 42, 49, 54]"
1713643102459094143,"[58, 54, 47, 54, 63, 68, 70, 65, 58, 63, 75, 77, 77, 75, 70, 77, 84, 87, 79, 58, 44, 49, 32, 11, 7, 7, 7, 14, 11, 9, 16, 14, 9, 7, 7, 4, -4, -11, -4, 2, 7, 16, 32, 44, 47, 42, 28, 18, 21, 23, 23, 30, 39, 42, 42, 30, 4, 47, 348, 874, 1180, 738, -108, -268, 94, 54, -110, -16, 28, -18, 7, 39, 28]"
1713643103020223522,"[37, 56, 61, 72, 87, 91, 101, 115, 129, 143, 145, 150, 183, 216, 230, 232, 246, 268, 270, 254, 221, 169, 103, 49, 9, -25, -42, -44, -51, -49, -37, -32, -25, -14, -9, -2, 7, 11, 16, 23, 28, 35, 42, 42, 49, 54, 47, 37, 39, 44, 47, 47, 49, 54, 58, 56, 58, 61, 63, 68, 72, 70, 72, 72, 75, 82, 84, 82, 82, 84, 84, 89, 91]"
1713643103581352901,"[87, 77, 68, 70, 77, 68, 28, -23, -47, -39, -35, -37, -35, -32, -28, -18, -9, -7, -4, -2, 2, 11, 21, 28, 28, 25, 37, 63, 84, 84, 68, 49, 47, 51, 58, 63, 63, 63, 58, 56, 58, 51, 136, 503, 1025, 1161, 524, -216, -143, 152, 14, -68, 49, 44, -2, 32, 58, 54, 68, 82, 75, 82, 103, 115, 124, 134, 138, 155, 183, 204, 216, 237, 256]"
1713643104142477197,"[254, 265, 291, 291, 254, 185, 122, 77, 30, -9, -39, -65, -70, -58, -51, -47, -44, -42, -32, -18, -7, 0, 2, 0, 9, 25, 32, 39, 39, 25, 25, 42, 49, 47, 47, 44, 49, 58, 63, 63, 58, 56, 61, 61, 51, 49, 47, 42, 42, 39, 32, 25, 14, 11, 18, 25, 25, 25, 23, 23, 23, 16, 14, 16, 4, -21, -21, 0, 7, 4, 7, 14, 21]"
1713643104703581141,"[30, 39, 39, 39, 44, 51, 68, 79, 75, 65, 56, 44, 42, 47, 49, 49, 51, 61, 72, 72, 54, 42, 181, 599, 1084, 1086, 359, -272, -79, 164, -11, -54, 54, 32, 9, 56, 65, 49, 68, 84, 79, 91, 112, 119, 127, 141, 155, 178, 202, 216, 242, 272, 282, 289, 310, 319, 308, 265, 190, 129, 82, 28, -14, -37, -54, -61, -61, -51, -37, -35, -37, -21, -11]"
1713643105264710524,"[-14, -2, 7, 9, 14, 7, -4, 7, 21, 18, 18, 18, 14, 21, 30, 28, 25, 35, 39, 42, 44, 39, 25, 16, 21, 30, 28, 23, 14, 4, 0, 0, 0, -2, -2, 0, 4, 11, 9, 4, 14, 21, 14, 4, -2, 0, 7, 23, 49, 47, 14, -9, -18, -16, -7, 2, 2, 4, 11, 21, 23, 23, 37, 209, 658, 1095, 961, 171, -343, -65, 127, -58, -63]"
1713643105825839903,"[39, 7, -25, 7, 25, 28, 49, 54, 32, 28, 56, 77, 89, 103, 115, 134, 164, 199, 237, 272, 289, 305, 329, 336, 319, 275, 204, 134, 77, 28, -9, -39, -61, -65, -70, -75, -63, -58, -63, -54, -37, -35, -49, -70, -68, -44, -32, -25, -11, -7, -7, 2, 16, 23, 18, 16, 18, 25, 35, 37, 37, 35, 37, 47, 51, 49, 42, 25, 23, 37, 44, 47, 49]"
1713643106386969282,"[49, 47, 51, 49, 39, 47, 61, 68, 68, 51, 23, -9, -35, -32, -16, -14, -14, -14, -16, -14, -9, 21, 256, 766, 1154, 825, -63, -381, -4, 49, -150, -82, -2, -47, -37, -11, -42, -39, 0, 11, 11, 28, 44, 54, 72, 96, 112, 129, 157, 188, 221, 258, 284, 301, 310, 310, 289, 235, 155, 91, 44, -4, -32, -42, -54, -58, -49, -39, -35, -28, -21, -16, -9]"
1713643106948088491,"[-2, 4, 11, 14, 21, 28, 32, 37, 32, 18, 23, 35, 35, 37, 42, 37, 30, 21, 18, 25, 28, 28, 35, 39, 37, 44, 47, 35, 18, 11, 21, 25, 25, 30, 42, 44, 44, 49, 51, 54, 61, 63, 63, 68, 68, 70, 77, 77, 65, 49, 51, 63, 68, 68, 68, 70, 72, 79, 101, 115, 110, 84, 61, 54, 58, 54, 39, 32, 32, 23, 18, 18, -4]"
1713643107509222957,"[42, 362, 907, 1194, 698, -171, -315, 28, -39, -183, -75, -47, -101, -63, -18, -25, -21, -7, 2, 11, 7, 2, 23, 37, 44, 75, 110, 138, 164, 188, 218, 254, 279, 291, 289, 263, 221, 174, 119, 56, -4, -39, -49, -49, -54, -51, -44, -42, -37, -21, -7, 2, 4, 7, 11, 23, 35, 37, 35, 32, 42, 54, 54, 58, 58, 51, 56, 65, 72, 75, 65, 49, 42]"
1713643108070326901,"[49, 56, 58, 51, 44, 51, 68, 72, 61, 32, 23, 42, 51, 30, 9, 9, 21, 25, 32, 44, 49, 44, 47, 56, 63, 65, 65, 63, 72, 82, 72, 56, 61, 68, 63, 70, 84, 84, 79, 82, 82, 79, 94, 110, 101, 75, 49, 35, 39, 35, 23, 21, 28, 32, 37, 28, 39, 249, 743, 1164, 933, 87, -338, -21, 91, -96, -54, 28, -21, -21, 23, 23, 25]"
1713643108631456284,"[44, 56, 61, 70, 82, 79, 49, 47, 82, 108, 127, 164, 199, 225, 258, 282, 298, 301, 284, 251, 197, 119, 44, 0, -28, -54, -65, -68, -63, -54, -47, -39, -28, -23, -18, -11, -7, 2, 16, 21, 23, 28, 37, 44, 51, 54, 54, 56, 56, 61, 63, 63, 65, 63, 51, 49, 56, 54, 51, 54, 61, 63, 61, 61, 65, 65, 65, 72, 72, 70, 70, 61, 35]"
1713643109192585663,"[30, 44, 42, 37, 47, 56, 58, 58, 49, 23, 7, 18, 21, -2, -18, -16, -18, -25, -18, -14, -18, -4, 23, 35, 30, 18, 2, -7, 2, 14, 16, 18, 23, 25, 28, 21, 42, 282, 799, 1225, 945, 54, -312, 39, 91, -119, -61, 23, -23, -18, 18, 11, 16, 44, 54, 56, 63, 72, 89, 108, 122, 136, 145, 162, 192, 204, 221, 251, 270, 279, 293, 289, 256]"
1713643109753715042,"[199, 127, 68, 25, -21, -47, -56, -68, -65, -49, -42, -37, -44, -56, -44, -23, -18, -11, -7, -9, 0, 16, 23, 28, 28, 23, 32, 49, 56, 56, 49, 44, 51, 63, 65, 63, 49, 42, 51, 58, 54, 42, 32, 35, 39, 37, 32, 25, 11, 0, 9, 16, 14, 16, 16, 16, 11, -4, -16, -9, -2, -2, 2, 14, 21, 23, 23, 21, 11, 14, 21, 23, 28]"
1713643110314844421,"[32, 37, 47, 51, 54, 56, 56, 56, 65, 79, 79, 77, 72, 61, 56, 54, 51, 56, 63, 65, 70, 70, 70, 61, 84, 331, 844, 1230, 921, 51, -284, 65, 110, -91, -21, 54, -2, 7, 49, 37, 44, 70, 68, 72, 96, 101, 108, 124, 131, 141, 143, 143, 174, 216, 239, 263, 293, 305, 303, 286, 249, 195, 134, 77, 32, -9, -37, -42, -44, -49, -37, -25, -23]"
1713643110875973800,"[-21, -14, -7, 4, 11, 9, 7, -2, 2, 23, 25, 18, 23, 32, 37, 44, 49, 44, 28, 11, 14, 23, 21, 14, 11, 4, 4, 0, -9, -11, -9, -2, 7, 11, 14, 11, 9, 16, 28, 32, 37, 37, 30, 16, 2, 11, 25, 23, 18, 25, 23, 21, 30, 35, 30, 37, 56, 82, 98, 89, 63, 54, 58, 68, 70, 65, 61, 72, 82, 82, 72, 70, 225]"
1713643111437103179,"[672, 1154, 1098, 312, -312, -91, 152, -28, -63, 32, -9, -30, 23, 37, 35, 51, 54, 56, 77, 96, 105, 115, 119, 136, 166, 192, 218, 242, 263, 296, 326, 338, 343, 329, 289, 221, 134, 63, 25, -21, -65, -82, -84, -82, -75, -75, -70, -56, -44, -35, -28, -25, -23, -11, 2, 11, 16, 16, 21, 30, 39, 42, 44, 42, 39, 44, 51, 56, 56, 49, 49, 54, 58]"
1713643111998232562,"[47, 35, 25, 21, 18, 28, 32, 9, -18, -23, -16, -25, -28, -23, -25, -23, -14, -4, -2, -4, -4, 0, 11, 21, 23, 21, 23, 18, 0, -9, 2, 7, -7, -11, 0, 14, 28, 47, 58, 56, 44, 37, 35, 35, 39, 44, 49, 56, 61, 58, 49, 54, 230, 707, 1190, 1072, 239, -293, -7, 152, -56, -44, 58, 11, -11, 23, 25, 23, 44, 51, 58, 75, 84]"
1713643112559372115,"[91, 108, 119, 136, 155, 174, 202, 230, 254, 279, 291, 286, 293, 301, 270, 221, 162, 101, 51, 11, -37, -75, -77, -75, -84, -77, -63, -58, -49, -35, -25, -21, -14, -7, -2, 7, 18, 23, 25, 28, 32, 39, 47, 49, 49, 49, 51, 56, 61, 61, 58, 58, 61, 65, 68, 54, 28, 25, 37, 39, 35, 25, 18, 7, 0, 7, 18, 14, 7, 4, 11, 21, 25]"
1713643113120491320,"[25, 21, 21, 30, 42, 47, 42, 25, 7, 16, 39, 44, 25, 4, -7, -7, 2, 16, 21, 16, 21, 35, 47, 51, 56, 65, 87, 105, 96, 77, 70, 68, 65, 72, 84, 91, 91, 87, 82, 82, 181, 557, 1077, 1201, 562, -190, -136, 164, 25, -75, 32, 42, 14, 56, 70, 49, 65, 91, 96, 103, 112, 117, 129, 148, 166, 183, 192, 214, 251, 282, 310, 336, 343]"
1713643113681620699,"[343, 345, 338, 301, 235, 136, 47, 11, -4, -30, -51, -72, -79, -63, -47, -37, -30, -30, -25, -14, -2, 9, 14, 11, 14, 28, 39, 47, 49, 42, 42, 54, 63, 63, 61, 58, 56, 51, 42, 44, 49, 47, 49, 49, 39, 39, 42, 39, 35, 30, 28, 18, 4, 2, 9, 14, 18, 21, 18, 16, 21, 28, 32, 32, 30, 35, 39, 44, 51, 56, 54, 39, 25]"
1713643114242750078,"[23, 14, 4, 11, 18, 21, 25, 30, 18, 11, 16, 14, 110, 500, 1025, 1159, 515, -258, -185, 138, -9, -103, 21, 18, -21, 21, 37, 28, 35, 35, 37, 54, 65, 75, 91, 103, 119, 138, 159, 185, 216, 242, 272, 296, 310, 319, 319, 293, 249, 188, 122, 72, 30, -7, -25, -32, -35, -28, -23, -23, -23, -25, -21, -18, -37, -49, -35, -25, -18, -4, 2, 2, 7]"
1713643114803879457,"[11, 21, 30, 32, 25, 11, 2, 14, 25, 23, 21, 23, 25, 35, 44, 47, 42, 35, 30, 23, 14, 14, 11, 2, -2, 0, -4, -9, -9, -9, -2, 7, 11, 14, 9, 11, 18, 25, 30, 32, 28, 25, 37, 47, 49, 51, 47, 44, 56, 65, 68, 63, 61, 77, 98, 98, 75, 35, 7, 18, 37, 39, 44, 49, 44, 49, 54, 47, 171, 585, 1098, 1154, 432]"
1713643115365008840,"[-254, -87, 164, -28, -72, 51, 32, 0, 28, 16, 2, 18, 28, 37, 47, 51, 65, 89, 105, 122, 134, 150, 178, 214, 244, 272, 289, 296, 310, 315, 298, 256, 192, 124, 77, 39, 11, -9, -23, -28, -21, -14, -16, -25, -30, -21, -9, 0, 9, 9, -11, -21, -2, 11, 14, 16, 18, 21, 30, 37, 42, 39, 39, 42, 44, 54, 56, 54, 54, 54, 51, 47, 44]"
1713643115926138219,"[44, 39, 28, 18, 9, 2, -7, -18, -16, -7, 0, -9, -23, -18, -7, -2, 2, 7, 9, 14, 16, 18, 28, 28, 28, 37, 39, 42, 51, 51, 49, 56, 61, 58, 51, 42, 51, 65, 82, 98, 98, 77, 49, 21, 16, 35, 39, 37, 47, 56, 54, 44, 47, 190, 625, 1124, 1098, 331, -279, -56, 162, -30, -54, 58, 28, -4, 28, 30, 28, 47, 56, 58, 79]"
1713643116487267598,"[94, 98, 110, 127, 138, 159, 183, 204, 221, 228, 251, 289, 303, 301, 296, 279, 239, 188, 131, 72, 25, -2, -16, -18, -25, -39, -49, -37, -23, -16, -7, 0, -2, 4, 14, 4, -14, -9, 2, 2, 7, 25, 35, 25, 25, 35, 39, 47, 54, 49, 44, 49, 58, 65, 63, 61, 56, 49, 44, 42, 32, 25, 30, 35, 30, 25, 18, 4, 2, 14, 21, 21, 23]"
1713643117048396977,"[18, 21, 30, 35, 30, 23, 0, -11, 4, 21, 35, 49, 56, 56, 42, 25, 16, 9, 7, 18, 35, 39, 44, 49, 37, 44, 218, 663, 1093, 976, 188, -352, -75, 134, -56, -70, 28, 2, -2, 42, 47, 35, 49, 65, 77, 91, 108, 115, 110, 115, 143, 171, 188, 204, 232, 263, 293, 322, 333, 331, 319, 289, 239, 176, 110, 49, 2, -14, -21, -32, -37, -32, -30]"
1713643117609526356,"[-23, -11, -2, -2, -2, 2, 7, 4, -2, -11, -16, -9, 4, 11, 16, 18, 18, 21, 28, 21, -2, -11, -2, 4, 7, 18, 23, 21, 25, 32, 30, 25, 18, 18, 25, 23, 16, 14, 11, -4, -21, -14, -4, -2, -4, 0, 7, 7, 11, 21, 23, 23, 28, 35, 54, 70, 75, 65, 49, 37, 39, 44, 42, 44, 51, 54, 56, 58, 44, 65, 310, 818, 1208]"
1713643118170655735,"[896, 9, -315, 51, 89, -110, -51, 2, -47, -25, 9, 4, 9, 9, 2, 18, 37, 44, 56, 75, 94, 112, 131, 155, 181, 211, 244, 270, 286, 298, 296, 277, 251, 199, 129, 72, 28, -2, -18, -32, -37, -32, -30, -25, -16, -11, -7, 4, 9, 11, 23, 32, 35, 39, 47, 54, 54, 54, 56, 58, 63, 65, 56, 47, 47, 54, 54, 54, 61, 61, 58, 61, 58]"
1713643118731785118,"[63, 75, 72, 56, 32, 16, 11, 21, 28, 21, 18, 30, 39, 37, 30, 21, 21, 32, 37, 30, 18, 2, -14, -9, 2, 4, 2, 0, 2, 14, 21, 25, 25, 21, 25, 35, 39, 44, 49, 58, 75, 91, 84, 68, 54, 44, 49, 58, 65, 70, 65, 58, 58, 42, 61, 333, 858, 1208, 839, -21, -275, 84, 79, -108, -21, 44, -7, 11, 42, 23, 14, 18, 23]"
1713643119292914497,"[37, 44, 51, 70, 91, 108, 124, 136, 155, 185, 216, 244, 263, 268, 275, 286, 282, 254, 192, 110, 51, 18, -11, -32, -47, -56, -56, -47, -35, -25, -21, -18, -11, 0, 9, 14, 18, 21, 23, 30, 42, 47, 44, 44, 37, 25, 32, 44, 42, 37, 39, 47, 51, 49, 51, 54, 54, 56, 63, 68, 65, 68, 68, 49, 30, 30, 37, 37, 42, 49, 51, 44, 37]"
1713643119854043876,"[39, 39, 39, 28, 2, -4, 2, -4, -4, -2, -21, -32, -16, -9, -7, -4, -2, 2, 9, 18, 44, 63, 63, 54, 37, 25, 32, 39, 39, 44, 49, 51, 56, 54, 39, 94, 402, 917, 1168, 660, -169, -246, 119, 47, -101, 7, 39, -4, 23, 49, 39, 49, 68, 77, 87, 77, 61, 70, 98, 117, 134, 155, 178, 202, 235, 270, 293, 298, 289, 289, 286, 246, 188]"
1713643120415173255,"[124, 63, 14, -11, -25, -37, -54, -70, -72, -51, -37, -37, -35, -28, -18, -7, 2, 9, 14, 16, 25, 35, 42, 47, 44, 42, 42, 35, 35, 39, 37, 35, 44, 54, 58, 58, 54, 54, 63, 70, 75, 72, 65, 65, 65, 61, 61, 58, 35, 11, 11, 16, 9, -4, -9, -2, 7, 11, 9, -7, -16, -4, 7, 11, 21, 23, 21, 25, 37, 56, 77, 84, 75]"
1713643120976297551,"[61, 54, 54, 56, 56, 47, 51, 68, 72, 70, 47, 14, 115, 510, 1041, 1187, 529, -261, -197, 124, -16, -110, 2, -2, -35, 11, 35, 23, 32, 47, 56, 70, 87, 96, 101, 115, 134, 155, 178, 199, 211, 211, 228, 265, 286, 289, 284, 268, 230, 169, 96, 37, -4, -35, -49, -47, -49, -51, -47, -39, -30, -16, -7, -4, -2, 7, 16, 25, 30, 30, 35, 42, 47]"
1713643121537432017,"[54, 56, 56, 58, 58, 61, 65, 51, 23, 11, 16, 23, 30, 30, 30, 28, 18, 23, 32, 30, 23, 16, 11, 7, 2, 0, 4, 7, 7, 11, 16, 16, 14, -4, -23, -11, 2, -2, 4, 16, 9, -2, 0, 9, 16, 21, 25, 32, 37, 39, 49, 56, 58, 77, 96, 101, 94, 79, 68, 63, 65, 68, 77, 79, 79, 82, 79, 70, 96, 333, 830, 1215, 912]"
1713643122098571569,"[42, -282, 72, 110, -96, -49, 16, -23, -11, 23, 16, 16, 42, 56, 58, 68, 79, 89, 105, 127, 141, 155, 174, 199, 228, 251, 251, 249, 265, 277, 270, 242, 178, 105, 51, 11, -21, -39, -49, -58, -61, -51, -39, -32, -23, -21, -18, -7, 7, 14, 18, 18, 21, 30, 42, 47, 51, 44, 44, 54, 61, 63, 65, 56, 44, 42, 54, 61, 56, 49, 51, 61, 65]"
1713643122659690775,"[58, 47, 39, 42, 49, 47, 37, 18, -11, -28, -9, 0, -2, -2, -7, -4, 7, 16, 11, -14, -35, -21, -7, -18, -21, -11, -14, -9, 7, 16, 21, 21, 18, 28, 39, 47, 51, 49, 47, 58, 68, 72, 89, 103, 103, 98, 89, 79, 75, 72, 70, 75, 82, 89, 89, 70, 47, 79, 322, 806, 1175, 867, 28, -272, 82, 119, -75, -11, 54, 4, 18, 58, 47]"
1713643123220820154,"[44, 63, 72, 79, 94, 98, 103, 115, 131, 148, 159, 155, 141, 150, 176, 199, 218, 232, 239, 235, 214, 176, 119, 58, 11, -25, -49, -56, -61, -63, -58, -51, -44, -35, -28, -21, -14, -9, 0, 7, 7, 14, 25, 25, 30, 37, 30, 21, 30, 35, 35, 39, 39, 35, 28, 16, 21, 28, 23, 14, 9, 2, -7, -11, -9, -4, 0, -2, 2, 7, 4, 11, 16]"
1713643123781949533,"[14, 16, 21, 18, 4, -30, -44, -30, -37, -51, -30, -16, -21, -14, -4, 0, 11, 16, 14, 18, 28, 32, 39, 47, 47, 49, 51, 56, 65, 70, 68, 70, 72, 79, 98, 117, 112, 91, 70, 63, 65, 68, 65, 63, 65, 75, 82, 77, 63, 94, 348, 839, 1171, 809, -21, -254, 101, 108, -65, 11, 61, 2, 21, 63, 58, 56, 68, 70, 72, 77, 61, 44, 54]"
1713643124343078912,"[75, 94, 117, 145, 166, 171, 181, 214, 244, 258, 261, 249, 223, 185, 134, 77, 28, -16, -44, -49, -47, -47, -47, -49, -39, -25, -18, -11, -21, -37, -30, -21, -23, -14, -7, -14, -18, -16, -16, -21, -30, -32, -25, -18, -14, -9, -11, -18, -11, 0, 4, 9, 7, 4, 14, 25, 32, 35, 30, 21, 16, 16, 21, 11, -18, -18, 4, 9, 14, 25, 23, 18, 32]"
1713643124904208291,"[44, 49, 51, 49, 47, 54, 65, 68, 61, 44, 42, 56, 63, 65, 68, 63, 70, 79, 79, 68, 68, 87, 98, 96, 84, 70, 61, 61, 65, 72, 82, 82, 77, 79, 75, 89, 282, 740, 1140, 938, 138, -277, 44, 164, -42, -11, 82, 37, 30, 68, 61, 49, 58, 70, 82, 77, 65, 75, 89, 103, 127, 148, 164, 190, 221, 249, 277, 296, 305, 315, 312, 289, 242]"
1713643125465342761,"[178, 119, 68, 18, -11, -32, -56, -61, -51, -51, -56, -58, -56, -42, -39, -44, -35, -25, -23, -16, -18, -28, -30, -32, -32, -23, -21, -23, -16, -11, -16, -7, 2, 0, 0, 7, 11, 14, 21, 21, 25, 28, 18, 11, 18, 25, 25, 18, 2, -7, 4, 11, 14, 18, 28, 35, 39, 47, 47, 49, 58, 65, 68, 65, 68, 70, 77, 96, 115, 122, 112, 96, 84]"
1713643126026477227,"[79, 75, 58, 56, 65, 70, 75, 79, 58, 25, 134, 543, 1037, 1074, 376, -301, -134, 157, -11, -75, 39, 23, -9, 44, 61, 42, 47, 61, 70, 89, 105, 110, 117, 124, 129, 148, 176, 197, 211, 232, 249, 251, 270, 284, 270, 246, 218, 164, 103, 47, -2, -35, -42, -44, -47, -49, -49, -42, -28, -18, -11, -9, -9, -2, 11, 9, 2, 2, 4, 11, 23, 30, 37]"
1713643126587626950,"[35, 28, 32, 35, 28, 28, 25, 16, 14, 11, 7, -4, -32, -47, -32, -21, -18, -14, -16, -18, -9, 2, 9, 11, 7, -4, -2, 14, 21, 23, 21, 21, 11, -4, 0, 14, 11, 11, 25, 35, 39, 39, 42, 44, 54, 63, 68, 68, 77, 96, 110, 108, 91, 72, 68, 72, 68, 58, 61, 65, 63, 65, 63, 75, 254, 703, 1133, 978, 181, -279, 11, 148, -49]"
1713643127148746159,"[-30, 65, 28, 16, 54, 56, 51, 70, 79, 68, 63, 79, 91, 101, 122, 134, 136, 152, 183, 211, 237, 261, 279, 296, 301, 286, 244, 185, 136, 84, 30, -7, -28, -49, -51, -47, -44, -39, -32, -28, -18, -7, -2, 2, 9, 14, 21, 21, 9, 9, 21, 23, 30, 37, 35, 37, 42, 42, 47, 49, 49, 49, 49, 54, 58, 61, 58, 58, 49, 39, 47, 51, 44]"
1713643127709880625,"[37, 28, 25, 23, 11, 7, 7, -2, -4, 7, 7, 2, -9, -21, -14, 2, 4, 2, 2, -11, -21, -4, 4, 0, 2, 9, 18, 25, 30, 28, 28, 35, 47, 54, 54, 51, 65, 87, 94, 72, 47, 32, 32, 39, 49, 54, 56, 54, 51, 56, 51, 70, 270, 719, 1112, 907, 110, -282, 32, 124, -75, -28, 58, 11, 9, 42, 35, 42, 65, 72, 70, 63, 70]"
1713643128271015091,"[91, 108, 119, 122, 112, 129, 169, 197, 223, 246, 256, 261, 251, 235, 223, 183, 115, 61, 25, -11, -37, -56, -70, -65, -54, -47, -37, -37, -37, -30, -32, -28, -16, -16, -16, -2, 9, 18, 21, 18, 18, 28, 37, 39, 42, 39, 39, 44, 54, 56, 54, 51, 51, 56, 56, 47, 42, 39, 39, 37, 32, 23, 4, -14, -11, 0, 2, 7, 7, 2, 4, 14, 21]"
1713643128832119039,"[21, 23, 23, 23, 21, 7, -16, -25, -21, -14, -4, 4, 7, 9, 11, 18, 25, 35, 39, 39, 37, 28, 25, 42, 49, 42, 49, 68, 89, 101, 94, 72, 58, 54, 63, 70, 65, 65, 72, 75, 77, 70, 84, 289, 750, 1121, 884, 91, -265, 58, 143, -51, -11, 54, -7, 2, 47, 37, 39, 63, 65, 75, 89, 96, 105, 119, 131, 145, 166, 183, 204, 216, 218]"
1713643129393253505,"[244, 272, 279, 284, 282, 261, 223, 169, 105, 47, -7, -51, -70, -82, -84, -77, -72, -63, -49, -39, -35, -30, -18, -4, 2, 9, 14, 16, 14, 14, 14, 18, 18, 16, 4, -2, 2, -4, -16, -14, -7, -2, 2, -2, -23, -35, -18, -2, 0, 2, 2, 7, 14, 23, 30, 35, 30, 28, 35, 49, 58, 58, 54, 47, 32, 35, 51, 47, 37, 49, 61, 61, 65]"
1713643129954372710,"[75, 72, 61, 56, 56, 65, 68, 49, 30, 47, 77, 98, 103, 89, 72, 65, 70, 77, 75, 63, 65, 77, 89, 94, 87, 87, 277, 747, 1154, 954, 155, -286, 23, 171, -21, -14, 61, 14, 16, 63, 61, 61, 77, 77, 87, 108, 124, 134, 138, 143, 159, 183, 209, 235, 256, 275, 289, 291, 301, 315, 303, 268, 230, 174, 112, 61, 7, -44, -65, -61, -58, -58, -54]"
1713643130515502089,"[-44, -37, -28, -14, -7, -11, -11, 7, 21, 16, -2, -23, -16, 0, -2, -11, -16, -25, -35, -30, -21, -18, -23, -21, -18, -18, -23, -25, -18, -16, -21, -11, 2, 7, 7, 9, 11, 18, 30, 37, 35, 32, 39, 63, 89, 91, 75, 58, 44, 25, 11, 9, 16, 21, 25, 35, 47, 44, 37, 169, 592, 1053, 1006, 265, -331, -108, 143, -30, -70, 37, 18, -4, 32]"
1713643131076631468,"[42, 35, 49, 63, 70, 79, 91, 89, 82, 94, 119, 136, 157, 185, 211, 244, 272, 279, 277, 284, 277, 251, 202, 134, 70, 21, -18, -42, -54, -58, -58, -56, -51, -37, -32, -28, -21, -16, -9, 2, 9, 2, -14, -28, -14, 2, 4, 7, 14, 11, 4, 11, 21, 18, 18, 21, 28, 37, 39, 37, 39, 42, 47, 54, 56, 54, 51, 56, 63, 65, 63, 47, 39]"
1713643131637760847,"[47, 54, 51, 37, 16, -9, -21, -14, -16, -30, -32, -28, -21, -11, -4, 2, 14, 32, 44, 39, 25, 14, 9, 11, 18, 28, 35, 37, 32, 32, 30, 65, 319, 825, 1173, 811, -37, -308, 42, 63, -131, -65, 7, -37, -23, 14, 2, 4, 35, 47, 54, 65, 70, 79, 101, 119, 136, 150, 162, 190, 228, 256, 279, 293, 296, 298, 296, 270, 218, 150, 84, 39, 2]"
1713643132198890230,"[-30, -47, -51, -56, -47, -32, -25, -25, -39, -49, -28, -11, -9, -2, 0, 0, 11, 23, 28, 30, 30, 30, 37, 47, 49, 49, 39, 16, 2, 11, 23, 16, 4, 7, 18, 28, 30, 32, 35, 37, 42, 51, 56, 54, 51, 54, 61, 68, 70, 68, 65, 70, 75, 79, 79, 77, 79, 79, 82, 87, 87, 77, 63, 49, 42, 44, 44, 28, 18, 14, 9, 11, 14]"
1713643132760019609,"[11, 14, 16, 21, 28, 25, 25, 30, 32, 39, 44, 44, 56, 79, 87, 77, 58, 30, 14, 9, -9, -9, 2, -4, -2, 11, 0, 18, 246, 729, 1131, 884, 49, -312, 23, 91, -98, -42, 32, -16, -9, 30, 28, 30, 49, 56, 61, 72, 87, 101, 108, 122, 138, 152, 169, 181, 197, 230, 254, 272, 289, 296, 289, 268, 225, 169, 117, 70, 25, 0, -14, -18, -16]"
1713643133321164249,"[-14, -11, -9, -4, 7, 16, 21, 18, 9, 0, 9, 9, -16, -32, -30, -28, -14, 0, 2, 2, 4, 11, 21, 28, 30, 30, 28, 32, 42, 49, 49, 47, 49, 54, 61, 68, 68, 63, 63, 70, 77, 82, 79, 75, 65, 51, 39, 39, 47, 35, 21, 21, 23, 14, 11, 9, 7, 16, 25, 28, 25, 21, 23, 32, 39, 44, 42, 37, 42, 51, 58, 61, 61]"
1713643133882278367,"[54, 56, 70, 70, 39, 4, 2, 35, 63, 68, 58, 28, -2, 4, 25, 30, 30, 35, 32, 39, 49, 42, 89, 366, 853, 1143, 738, -68, -237, 103, 68, -87, 9, 56, 4, 18, 37, 16, 23, 51, 56, 54, 68, 84, 101, 115, 131, 141, 157, 183, 211, 242, 263, 282, 298, 312, 317, 310, 284, 230, 166, 117, 75, 37, 9, -7, -14, -11, -9, -23, -47, -39, -23]"
1713643134443407746,"[-18, -7, 4, 4, 4, 0, 0, 11, 7, -14, -25, -21, -21, -28, -32, -28, -21, -16, -11, -7, -4, -7, -2, 4, 9, 16, 18, 16, 7, 4, 14, 25, 28, 28, 32, 39, 47, 54, 54, 56, 63, 65, 72, 77, 75, 75, 82, 89, 94, 94, 91, 98, 103, 101, 103, 105, 103, 103, 108, 103, 94, 84, 65, 61, 75, 77, 87, 112, 122, 110, 94, 82, 75]"
1713643135004567647,"[79, 89, 96, 94, 91, 91, 77, 56, 103, 364, 841, 1159, 801, -23, -265, 103, 122, -68, -2, 49, -4, 14, 54, 39, 39, 70, 84, 87, 94, 108, 119, 129, 148, 169, 185, 204, 228, 258, 293, 317, 331, 336, 338, 338, 310, 254, 181, 115, 65, 25, -11, -51, -70, -70, -84, -108, -108, -101, -110, -112, -98, -87, -79, -68, -63, -56, -39, -32, -28, -21, -21, -18, -4]"
1713643135565697026,"[4, 7, 7, -11, -25, -9, 4, 7, 14, 14, 7, 9, 21, 28, 25, 21, 25, 39, 49, 51, 51, 47, 51, 63, 68, 72, 72, 65, 68, 82, 89, 87, 84, 89, 108, 127, 129, 115, 89, 72, 77, 82, 68, 58, 56, 56, 58, 49, 18, 72, 373, 874, 1152, 717, -119, -286, 87, 63, -101, -4, 44, -9, 7, 37, 32, 44, 65, 68, 65, 75, 89, 105, 122]"
1713643136126826405,"[134, 136, 141, 171, 209, 237, 261, 279, 293, 305, 310, 289, 228, 141, 77, 39, -7, -44, -58, -68, -79, -72, -58, -56, -51, -44, -42, -35, -23, -18, -18, -11, -9, -16, -18, -7, -2, -2, 0, -14, -30, -23, -14, -16, -14, -4, -4, -16, -18, -11, -9, -9, -14, -23, -28, -35, -37, -28, -23, -30, -28, -14, -9, -4, 0, -9, -14, -4, 2, 4, 11, 11, 16]"
1713643136687955784,"[21, 25, 32, 37, 35, 42, 49, 47, 51, 58, 56, 63, 65, 47, 35, 37, 37, 47, 51, 51, 54, 61, 58, 47, 72, 329, 856, 1206, 818, -35, -270, 75, 47, -150, -63, 4, -44, -21, 14, 2, 14, 39, 47, 49, 61, 72, 87, 105, 122, 134, 150, 169, 197, 230, 256, 270, 279, 291, 301, 293, 261, 202, 138, 87, 47, 16, -9, -28, -42, -28, -4, -4, -9]"
1713643137249085163,"[-9, -7, 4, 16, 25, 28, 11, -16, -9, 21, 39, 39, 25, 23, 42, 39, 18, 14, 21, 30, 47, 47, 37, 44, 51, 35, 18, 23, 30, 35, 44, 44, 47, 58, 65, 61, 56, 61, 70, 75, 82, 75, 58, 56, 70, 72, 65, 47, 21, 14, 21, 23, 30, 28, 18, 25, 37, 44, 56, 63, 65, 68, 54, 35, 51, 68, 44, 35, 61, 68, 61, 70, 65]"
1713643137810214542,"[54, 183, 623, 1159, 1178, 413, -270, -103, 141, -44, -108, -7, -21, -37, 11, 28, 16, 21, 16, 9, 28, 49, 56, 68, 89, 112, 134, 157, 181, 209, 242, 277, 308, 326, 329, 322, 305, 268, 188, 98, 39, 2, -21, -30, -37, -42, -37, -25, -16, -11, -9, -2, 2, 7, 18, 28, 30, 35, 42, 47, 54, 58, 58, 58, 63, 65, 68, 72, 72, 70, 63, 51, 49]"
1713643138371343921,"[58, 58, 58, 61, 63, 68, 65, 47, 44, 51, 44, 23, 28, 51, 63, 47, 28, 30, 37, 32, 35, 47, 54, 54, 54, 58, 54, 63, 261, 736, 1112, 839, 9, -362, -35, 54, -145, -103, -9, -56, -63, -18, -18, -23, 4, 18, 21, 37, 49, 56, 77, 96, 115, 136, 159, 192, 232, 263, 282, 301, 312, 298, 265, 216, 152, 82, 21, -16, -37, -54, -65, -72, -65]"
1713643138932473304,"[-51, -42, -47, -70, -98, -96, -75, -61, -49, -42, -39, -30, -11, 4, 7, 7, 14, 23, 30, 32, 23, 9, 4, 14, 21, 32, 39, 32, 32, 44, 51, 56, 61, 58, 56, 65, 70, 75, 82, 77, 70, 82, 91, 94, 91, 84, 94, 117, 134, 131, 112, 82, 65, 58, 63, 72, 68, 61, 68, 77, 75, 63, 124, 451, 997, 1244, 679, -155, -204, 103, -21, -136, -16]"
1713643139493602683,"[-9, -75, -49, -30, -47, -32, -11, -18, -16, 4, 21, 25, 23, 18, 21, 54, 96, 122, 155, 185, 202, 223, 244, 246, 225, 178, 115, 58, 16, -16, -37, -61, -72, -63, -54, -47, -37, -39, -35, -18, -7, 0, 9, 9, -4, 2, 21, 25, 23, 25, 28, 37, 44, 49, 54, 47, 47, 56, 61, 61, 56, 37, 16, 21, 39, 39, 35, 42, 44, 47, 54, 63, 58]"
1713643140054732062,"[58, 61, 58, 49, 42, 47, 49, 49, 51, 58, 51, 37, 37, 47, 47, 54, 58, 58, 61, 63, 65, 72, 72, 72, 75, 77, 79, 84, 82, 84, 89, 84, 89, 101, 98, 84, 87, 110, 124, 115, 94, 82, 75, 65, 61, 58, 56, 61, 58, 44, 30, 14, 131, 552, 1058, 1058, 303, -355, -169, 75, -108, -150, -35, -56, -79, -32, -25, -47, -35, -16, -11, 7, 28]"
1713643140615861441,"[37, 47, 68, 87, 108, 134, 152, 171, 183, 204, 239, 258, 258, 258, 242, 204, 152, 96, 44, 2, -25, -37, -32, -35, -39, -35, -35, -32, -18, -7, -7, -2, 4, 16, 25, 32, 32, 30, 39, 49, 54, 54, 58, 58, 58, 65, 65, 39, 16, 21, 32, 37, 44, 54, 47, 47, 58, 58, 47, 44, 42, 39, 49, 58, 61, 63, 65, 65, 70, 77, 84, 82, 75]"
1713643141176985737,"[75, 82, 87, 91, 87, 65, 58, 72, 77, 72, 79, 79, 75, 79, 87, 91, 89, 79, 72, 77, 75, 68, 68, 63, 70, 87, 91, 72, 37, 11, 16, 30, 28, 28, 25, 23, 30, 37, 32, 35, 199, 653, 1119, 978, 143, -352, -44, 98, -108, -96, -2, -42, -51, -11, 0, 7, 30, 39, 42, 54, 65, 82, 105, 119, 127, 143, 174, 206, 232, 261, 284, 301, 319]"
1713643141738120203,"[333, 326, 291, 232, 171, 112, 61, 16, -18, -39, -42, -39, -35, -32, -44, -54, -42, -23, -14, -7, -4, -2, 7, 18, 30, 30, 32, 39, 39, 39, 51, 56, 37, 11, 11, 23, 28, 25, 32, 32, 18, 14, 25, 30, 28, 30, 30, 23, 23, 25, 25, 28, 25, 18, 11, 2, 2, 11, 9, 11, 18, 21, 21, 25, 28, 30, 35, 39, 42, 54, 70, 82, 77]"
1713643142299219064,"[56, 44, 39, 37, 39, 32, 16, 25, 37, 37, 39, 30, 56, 329, 867, 1241, 877, -21, -301, 79, 98, -98, -18, 44, -18, -21, 2, -2, 9, 25, 28, 25, 37, 51, 63, 72, 91, 122, 143, 157, 185, 221, 251, 282, 303, 308, 305, 293, 263, 209, 138, 77, 25, -7, -21, -25, -30, -32, -32, -28, -14, 0, 4, -11, -28, -14, 2, 4, 0, -4, 11, 51, 65]"
1713643142860348443,"[47, 42, 51, 44, 42, 61, 68, 51, 30, 16, 23, 32, 32, 21, 4, -7, -4, -14, -39, -44, -30, -35, -39, -42, -35, -32, -37, -23, -7, -7, -2, 4, 0, 4, 21, 30, 35, 35, 30, 35, 47, 54, 58, 61, 56, 61, 72, 77, 79, 79, 75, 82, 94, 94, 87, 84, 98, 110, 103, 89, 79, 72, 70, 77, 84, 91, 96, 91, 77, 65, 134, 468, 1016]"
1713643143421477822,"[1274, 731, -117, -181, 166, 65, -79, 25, 51, -4, 7, 9, -23, -30, -11, 4, 21, 32, 39, 54, 72, 94, 115, 131, 148, 174, 209, 244, 268, 284, 293, 293, 286, 258, 204, 138, 82, 35, 2, -9, -14, -23, -28, -23, -18, -21, -23, -16, -9, -9, 2, 21, 18, 18, 28, 32, 35, 47, 49, 49, 54, 54, 61, 68, 63, 65, 70, 65, 63, 70, 65, 54, 47]"
1713643143982607201,"[47, 51, 39, 7, -21, -23, -28, -32, -35, -44, -44, -32, -32, -30, -21, -18, -16, -4, 0, 4, 11, 11, 14, 23, 30, 37, 44, 44, 44, 51, 61, 68, 65, 63, 75, 77, 63, 54, 70, 96, 108, 96, 77, 65, 63, 72, 77, 72, 75, 87, 94, 87, 79, 124, 395, 907, 1237, 834, -21, -239, 122, 110, -68, 23, 82, 21, 32, 70, 51, 35, 54, 72, 72]"
1713643144543736580,"[79, 94, 105, 119, 131, 143, 145, 152, 192, 237, 258, 275, 291, 305, 315, 305, 268, 211, 145, 89, 51, 21, -11, -35, -39, -30, -25, -25, -30, -35, -32, -21, -4, 4, 7, 7, 14, 28, 35, 39, 44, 35, 35, 54, 65, 58, 54, 54, 54, 61, 68, 68, 68, 61, 61, 70, 75, 77, 75, 51, 23, 11, 7, 7, 2, -11, -16, -16, -14, -9, -11, -16, -11]"
1713643145104865963,"[-4, 7, 35, 47, 35, 25, 16, 9, 14, 0, -23, -11, 9, 11, 14, 16, 4, 49, 319, 809, 1121, 733, -119, -336, 54, 70, -112, -37, 18, -28, -4, 35, 28, 28, 44, 58, 70, 82, 89, 98, 112, 131, 152, 171, 192, 218, 244, 275, 305, 324, 322, 308, 289, 239, 152, 72, 21, -21, -58, -72, -72, -75, -77, -70, -58, -49, -42, -37, -32, -25, -16, -7, 2]"
1713643145665995342,"[9, 11, 14, 21, 28, 32, 21, 9, 11, 7, -4, 0, 7, 2, 7, 11, 16, 25, 28, 28, 32, 39, 42, 47, 47, 47, 49, 51, 56, 58, 56, 51, 39, 35, 44, 47, 35, 28, 23, 16, 9, 4, -4, -7, 11, 28, 25, -2, -28, -30, -28, -28, -18, -14, -14, -4, 0, 4, 9, 0, 94, 493, 1041, 1152, 463, -279, -169, 119, -39, -110, 9, -4, -42]"
1713643146227104377,"[0, 2, -14, 7, 23, 25, 42, 58, 61, 61, 61, 79, 108, 127, 143, 169, 204, 239, 265, 279, 286, 282, 263, 225, 171, 110, 54, 7, -18, -25, -28, -30, -39, -47, -37, -23, -14, -9, -14, -28, -32, -14, 4, 2, 0, 7, 16, 23, 32, 35, 28, 28, 44, 54, 49, 49, 49, 42, 47, 63, 68, 65, 58, 56, 58, 47, 47, 54, 47, 44, 54, 61, 68]"
1713643146788238843,"[68, 58, 58, 72, 79, 79, 70, 47, 42, 58, 65, 68, 63, 58, 68, 82, 89, 94, 89, 68, 47, 35, 23, 14, 0, -16, -11, 0, 4, 2, -11, 25, 291, 776, 1063, 637, -185, -341, 23, 2, -155, -58, -21, -75, -44, -4, -14, -2, 11, 11, 28, 54, 63, 70, 84, 87, 91, 112, 145, 174, 195, 218, 251, 275, 284, 286, 270, 230, 181, 129, 75, 25, -9]"
1713643147349352961,"[-28, -37, -35, -28, -25, -25, -23, -11, 0, -2, -16, -18, -7, 4, 4, -4, -11, 0, 14, 16, 23, 30, 30, 32, 25, 4, -2, 9, 11, 11, 14, 23, 35, 32, 32, 39, 42, 44, 54, 54, 51, 58, 63, 63, 65, 65, 65, 58, 42, 51, 79, 94, 98, 89, 70, 56, 54, 58, 61, 61, 61, 65, 70, 68, 63, 65, 202, 604, 1039, 980, 265, -279, -70]"
1713643147910482340,"[134, -42, -70, 32, 0, -44, -28, -47, -70, -44, -23, -30, -21, -4, 2, 18, 37, 32, 25, 47, 84, 122, 148, 171, 197, 211, 218, 218, 192, 136, 75, 21, -18, -49, -68, -82, -89, -87, -87, -87, -77, -70, -68, -56, -37, -23, -16, -16, -16, -4, 11, 21, 18, 18, 23, 35, 44, 47, 49, 42, 37, 47, 61, 61, 58, 54, 54, 61, 65, 68, 58, 42, 44]"
1713643148471611719,"[56, 63, 72, 87, 82, 58, 49, 44, 39, 35, 16, 7, 25, 39, 37, 37, 35, 30, 103, 430, 947, 1159, 604, -199, -228, 136, 58, -79, 14, 28, -21, 16, 39, 23, 32, 63, 68, 61, 70, 82, 82, 91, 105, 117, 131, 138, 157, 197, 232, 254, 265, 268, 256, 232, 183, 122, 63, 2, -47, -63, -70, -84, -94, -94, -89, -77, -61, -51, -44, -39, -39, -30, -11]"
1713643149032741102,"[-2, 0, -11, -30, -18, 4, 2, -14, -30, -28, -14, -4, 0, 7, 9, 11, 14, 21, 28, 42, 51, 54, 58, 51, 32, 25, 30, 35, 37, 44, 47, 47, 49, 56, 54, 44, 159, 595, 1147, 1187, 399, -312, -112, 171, -18, -72, 51, 32, -2, 42, 54, 37, 42, 51, 54, 63, 77, 89, 103, 122, 136, 152, 178, 202, 230, 261, 282, 293, 282, 256, 239, 209, 141]"
1713643149593870481,"[72, 28, -14, -44, -61, -70, -82, -87, -82, -72, -68, -72, -82, -82, -82, -82, -87, -96, -87, -68, -65, -61, -51, -49, -42, -35, -32, -25, -18, -21, -11, -4, -4, 0, 4, 9, 16, 21, 23, 28, 32, 35, 42, 37, 23, 30, 37, 42, 68, 89, 87, 75, 58, 49, 56, 61, 56, 56, 61, 65, 61, 42, 18, 11, 112, 503, 1053, 1187, 496, -265, -159, 143, -9]"
1713643150154999860,"[-89, 25, 9, -35, 9, 32, 23, 28, 21, 18, 39, 58, 68, 79, 89, 108, 134, 157, 181, 202, 228, 256, 279, 293, 296, 277, 246, 202, 145, 91, 47, 7, -18, -23, -32, -42, -39, -35, -30, -16, -4, 4, 7, 4, 7, 21, 35, 39, 39, 32, 25, 23, 25, 16, -14, -32, -30, -25, -30, -32, -32, -37, -32, -21, -16, -11, -14, -23, -18, -2, 4, 7, 7]"
1713643150716129239,"[4, 14, 25, 28, 32, 32, 32, 37, 47, 56, 56, 35, 21, 37, 54, 49, 51, 58, 56, 58, 70, 75, 77, 75, 70, 68, 63, 65, 70, 68, 65, 77, 87, 91, 91, 103, 119, 129, 117, 103, 89, 79, 82, 91, 94, 89, 70, 56, 61, 56, 70, 289, 778, 1206, 983, 124, -279, 44, 115, -89, -39, 47, 4, 7, 42, 37, 39, 61, 75, 77, 84, 96, 110]"
1713643151277258618,"[124, 141, 152, 169, 192, 214, 237, 261, 263, 263, 279, 284, 261, 230, 188, 127, 51, -16, -56, -79, -108, -112, -101, -101, -98, -84, -70, -61, -54, -56, -49, -32, -25, -23, -14, -7, -2, 2, -7, -18, -16, -9, -2, 4, 4, 11, 21, 21, 14, 7, 9, 23, 30, 28, 32, 39, 44, 51, 58, 63, 63, 63, 63, 72, 79, 79, 79, 79, 84, 94, 98, 94, 96]"
1713643151838387997,"[94, 91, 105, 124, 129, 122, 101, 77, 56, 44, 47, 51, 49, 54, 68, 75, 75, 65, 51, 143, 505, 1025, 1192, 585, -209, -185, 166, 49, -77, 32, 47, -18, -7, 14, 9, 18, 35, 35, 37, 44, 35, 32, 49, 61, 72, 89, 98, 124, 162, 192, 216, 232, 232, 218, 197, 155, 96, 32, -23, -61, -77, -89, -89, -82, -89, -87, -68, -56, -49, -42, -47, -47, -44]"
1713643152399517380,"[-37, -21, -18, -42, -42, -18, -7, -2, 0, -2, 0, 14, 18, 21, 21, 21, 25, 32, 39, 44, 42, 37, 42, 51, 39, 16, 9, 16, 21, 28, 35, 25, 11, 16, 30, 35, 42, 47, 47, 44, 51, 61, 65, 68, 63, 61, 72, 84, 87, 87, 82, 79, 96, 122, 127, 103, 70, 58, 58, 58, 51, 37, 21, 0, -2, 14, 11, -11, 87, 479, 1018, 1143, 463]"
1713643152960646759,"[-286, -183, 103, -54, -122, -4, -16, -56, -14, 7, 2, 7, 2, 4, 23, 35, 42, 32, 25, 47, 75, 91, 105, 127, 159, 190, 214, 232, 246, 242, 223, 183, 124, 70, 25, -9, -30, -42, -49, -47, -37, -35, -30, -18, -11, -4, 4, 9, 16, 23, 25, 30, 47, 51, 35, 30, 39, 44, 44, 47, 54, 54, 54, 56, 58, 58, 63, 68, 65, 68, 70, 68, 70]"
1713643153521776138,"[77, 79, 77, 77, 79, 82, 84, 79, 72, 51, 11, -4, 0, -9, -21, -23, -25, -25, -30, -35, -28, -23, -21, -9, -4, -4, -2, 2, 9, 18, 21, 21, 25, 30, 37, 47, 49, 58, 75, 87, 84, 72, 61, 54, 54, 47, 42, 54, 58, 56, 54, 49, 51, 199, 630, 1112, 1079, 322, -268, -39, 164, -35, -56, 54, 28, 9, 51, 49, 42, 63, 79, 82, 89]"
1713643154082895347,"[94, 98, 110, 115, 98, 91, 98, 108, 143, 185, 211, 225, 237, 249, 256, 242, 199, 138, 75, 32, 2, -18, -25, -32, -44, -42, -23, -9, -4, -2, 0, 7, 21, 28, 35, 37, 25, 18, 30, 42, 49, 44, 42, 51, 58, 54, 58, 56, 47, 56, 68, 65, 65, 68, 63, 68, 72, 75, 75, 70, 68, 72, 82, 82, 77, 77, 79, 77, 65, 30, 4, 7, 11]"
1713643154644004378,"[11, 14, 9, 2, -4, -14, -7, 4, 2, -9, -21, -21, -4, 16, 42, 49, 28, 4, 7, 21, 23, 18, 28, 32, 35, 47, 54, 30, 56, 348, 879, 1178, 726, -112, -265, 103, 77, -84, 9, 51, 0, 25, 65, 56, 61, 77, 79, 91, 110, 117, 122, 134, 152, 171, 188, 214, 239, 261, 282, 291, 293, 296, 268, 235, 206, 150, 82, 35, -4, -39, -61, -72, -68]"
1713643155205133757,"[-58, -58, -51, -39, -39, -32, -28, -44, -42, -18, -9, -4, 0, 0, 9, 23, 25, 23, 23, 18, 23, 30, 28, 30, 35, 37, 39, 44, 44, 47, 51, 51, 56, 61, 61, 58, 61, 58, 51, 47, 47, 47, 42, 30, 30, 30, 18, 7, 7, 11, 18, 23, 30, 23, -11, -42, -32, -16, -18, -21, -14, -2, 9, 11, 2, 0, 159, 620, 1112, 1037, 230, -341, -72]"
1713643155766263140,"[127, -72, -77, 16, -39, -56, 2, 11, 0, 11, 16, 25, 44, 61, 68, 77, 91, 115, 141, 164, 190, 211, 232, 263, 286, 301, 305, 286, 254, 211, 150, 91, 44, 0, -21, -25, -30, -25, -21, -25, -28, -28, -30, -18, -16, -28, -23, -25, -32, -18, -11, -18, -7, 11, 9, 14, 21, 14, 14, 30, 37, 35, 30, 25, 35, 44, 44, 51, 47, 37, 44, 56, 56]"
1713643156327392519,"[49, 32, 30, 44, 49, 51, 58, 58, 49, 56, 65, 70, 61, 32, 16, 23, 32, 35, 30, 16, 7, 7, 2, 0, 7, 2, -2, 16, 42, 54, 49, 30, 0, -11, 0, 7, 2, 2, 11, 4, -14, -21, -23, 65, 423, 938, 1103, 508, -239, -197, 105, -23, -112, 2, 4, -35, 0, 25, 23, 35, 47, 54, 63, 75, 82, 82, 89, 108, 127, 145, 174, 202, 223]"
1713643156888521898,"[242, 265, 286, 291, 282, 272, 244, 181, 122, 75, 18, -23, -30, -32, -37, -30, -25, -21, -11, -7, -2, 9, 21, 11, -2, 2, 18, 18, 18, 32, 42, 37, 23, 0, 2, 28, 30, 21, 32, 39, 35, 44, 56, 51, 51, 58, 63, 68, 68, 68, 70, 70, 77, 77, 70, 79, 82, 68, 70, 79, 75, 72, 75, 72, 84, 101, 94, 87, 96, 101, 94, 91, 84]"
1713643157449651277,"[77, 82, 79, 70, 61, 70, 79, 61, 37, 37, 28, 11, 9, 14, 7, -2, 0, 14, 18, 11, 4, 70, 395, 926, 1168, 632, -199, -263, 103, 21, -129, -25, 11, -28, 4, 32, 21, 32, 56, 63, 75, 94, 96, 96, 122, 148, 155, 152, 169, 204, 237, 263, 286, 305, 310, 305, 301, 265, 199, 138, 84, 30, 0, -2, -9, -21, -23, -16, -4, 4, 11, 11, 7]"
1713643158010780656,"[14, 30, 39, 49, 56, 42, 30, 39, 54, 56, 35, 9, 18, 37, 32, 30, 39, 23, -2, 0, 18, 25, 25, 25, 30, 42, 47, 51, 58, 58, 58, 68, 77, 72, 70, 77, 101, 117, 105, 82, 63, 56, 61, 70, 77, 77, 68, 56, 54, 61, 61, 94, 345, 834, 1131, 705, -131, -315, 51, 44, -124, -37, 18, -37, -28, 11, 9, 18, 39, 42, 35, 47, 65]"
1713643158571910035,"[79, 94, 108, 119, 141, 171, 204, 221, 230, 239, 232, 230, 242, 218, 159, 103, 42, -7, -37, -65, -84, -84, -79, -72, -63, -63, -56, -44, -44, -54, -47, -32, -21, -11, -7, 2, 14, 16, 21, 28, 28, 32, 42, 44, 44, 44, 44, 49, 56, 54, 56, 61, 61, 61, 65, 63, 68, 70, 68, 77, 77, 61, 58, 70, 68, 68, 68, 63, 72, 96, 108, 108, 96]"
1713643159133039418,"[79, 70, 58, 30, 9, 7, 4, 14, 25, 23, 9, 9, 192, 686, 1157, 973, 108, -369, -56, 56, -176, -155, -54, -103, -103, -47, -47, -56, -35, -23, -16, 7, 23, 23, 35, 58, 79, 103, 127, 148, 174, 204, 235, 256, 263, 261, 244, 211, 159, 98, 51, 4, -44, -65, -61, -56, -58, -58, -54, -44, -30, -18, -16, -16, -9, 2, 9, 14, 9, -14, -25, -4, 7]"
1713643159694168797,"[9, 14, 11, 11, 23, 30, 32, 28, 7, -2, 7, 4, -2, 4, 7, 7, 21, 30, 30, 32, 32, 37, 47, 54, 56, 56, 51, 56, 65, 70, 72, 72, 68, 72, 82, 84, 87, 84, 75, 77, 91, 94, 89, 77, 70, 77, 84, 89, 103, 115, 110, 103, 91, 79, 77, 75, 70, 72, 84, 87, 87, 63, 9, 14, 246, 747, 1178, 928, 47, -352, -21, 47, -152]"
1713643160255298176,"[-103, -35, -96, -91, -42, -47, -54, -32, -14, -4, 7, 4, 0, 18, 47, 65, 87, 108, 131, 162, 195, 223, 242, 251, 254, 244, 221, 178, 119, 63, 18, -14, -32, -39, -54, -65, -61, -49, -37, -23, -16, -14, -7, 2, 11, 23, 28, 28, 35, 42, 44, 49, 54, 35, 11, 14, 28, 35, 32, 35, 44, 42, 47, 54, 51, 51, 44, 35, 42, 54, 51, 54, 58]"
1713643160816417385,"[63, 72, 77, 72, 72, 82, 84, 84, 75, 58, 63, 79, 79, 77, 77, 79, 87, 91, 89, 94, 91, 89, 119, 145, 136, 105, 79, 70, 77, 82, 79, 82, 89, 89, 94, 91, 77, 101, 336, 839, 1215, 877, 16, -282, 63, 82, -131, -75, -14, -79, -63, -11, -14, -11, 7, 9, 14, 25, 28, 37, 54, 72, 91, 117, 148, 176, 202, 225, 256, 282, 293, 291, 270]"
1713643161377526416,"[228, 171, 112, 61, 16, -35, -77, -84, -65, -58, -61, -61, -54, -37, -18, -16, -25, -37, -30, -11, 2, 11, 18, 14, 18, 35, 44, 47, 47, 44, 42, 51, 61, 65, 63, 54, 54, 56, 39, 28, 37, 37, 37, 49, 56, 58, 61, 56, 44, 42, 51, 58, 56, 51, 61, 72, 72, 75, 79, 91, 108, 117, 110, 91, 70, 68, 75, 82, 84, 84, 72, 58, 63]"
1713643161938655795,"[61, 61, 251, 733, 1168, 954, 87, -364, -56, 32, -178, -129, -32, -77, -77, -37, -42, -37, -9, 0, 2, 14, 25, 42, 63, 79, 94, 108, 134, 164, 176, 185, 211, 232, 239, 249, 239, 204, 141, 68, 2, -32, -49, -65, -77, -77, -70, -63, -49, -39, -35, -30, -23, -9, 4, 7, 11, 18, 25, 32, 42, 47, 49, 54, 56, 61, 68, 65, 63, 65, 68, 58, 47]"
1713643162499785178,"[49, 54, 56, 56, 58, 61, 47, 37, 47, 51, 51, 56, 61, 63, 65, 68, 72, 77, 75, 77, 82, 79, 75, 56, 37, 47, 58, 58, 65, 70, 58, 39, 39, 49, 49, 42, 32, 32, 32, 23, 18, 28, 49, 70, 68, 47, 35, 25, 25, 37, 42, 37, 42, 44, 47, 47, 35, 101, 449, 992, 1206, 623, -190, -209, 115, 0, -112, 4, 16, -30, 7, 32, 25]"
1713643163060934903,"[42, 58, 58, 63, 75, 91, 105, 117, 119, 117, 127, 159, 192, 216, 232, 237, 239, 256, 263, 244, 204, 143, 77, 28, -4, -28, -49, -61, -56, -44, -37, -35, -35, -28, -7, 4, 9, 14, 14, 16, 25, 35, 44, 49, 49, 47, 54, 61, 65, 63, 56, 56, 61, 56, 47, 49, 44, 42, 56, 65, 65, 61, 58, 61, 65, 77, 84, 75, 68, 77, 84, 87, 94]"
1713643163622043936,"[94, 79, 82, 91, 96, 101, 94, 70, 56, 61, 58, 54, 44, 30, 30, 32, 28, 14, -16, -30, -9, 4, -2, 9, 35, 47, 39, 28, 23, 23, 18, 21, 32, 35, 37, 49, 49, 32, 42, 242, 722, 1161, 976, 145, -319, -14, 119, -82, -58, 35, -4, -4, 44, 44, 32, 54, 68, 77, 91, 101, 101, 110, 138, 159, 171, 185, 211, 239, 272, 305, 317, 319, 315]"
1713643164183142797,"[279, 228, 181, 117, 44, -9, -39, -56, -63, -79, -96, -87, -70, -63, -56, -47, -39, -32, -28, -16, -2, 2, 7, 14, 18, 25, 35, 37, 39, 44, 44, 47, 49, 47, 44, 49, 37, 32, 44, 47, 44, 51, 54, 56, 58, 58, 63, 65, 65, 65, 68, 70, 79, 79, 75, 77, 70, 58, 61, 65, 58, 51, 42, 32, 30, 16, -9, -30, -37, -28, -9, 4, 21]"
1713643164744272176,"[23, 9, -2, 0, 2, 4, 9, 9, 4, 11, 14, -4, -21, 51, 388, 950, 1213, 646, -192, -225, 117, 14, -105, 4, 18, -28, 2, 16, 0, 14, 30, 35, 51, 72, 82, 84, 98, 115, 136, 164, 197, 214, 221, 249, 282, 301, 308, 303, 277, 237, 185, 127, 72, 23, -11, -21, -18, -23, -47, -75, -68, -44, -37, -30, -21, -21, -18, -2, 4, 14, 28, 25, 21]"
1713643165305401555,"[32, 44, 51, 47, 23, 14, 28, 35, 35, 35, 32, 37, 47, 54, 56, 54, 47, 42, 37, 35, 35, 25, 16, 23, 32, 30, 21, 11, -4, -11, 4, 14, 9, 7, 9, 11, 18, 18, 21, 28, 30, 32, 39, 47, 47, 42, 39, 54, 61, 54, 44, 37, 30, 39, 56, 49, 30, 21, 23, 30, 42, 49, 49, 47, 51, 56, 51, 150, 533, 1058, 1173, 498, -230]"
1713643165866530938,"[-115, 169, -2, -77, 47, 39, -2, 21, 16, -4, 18, 39, 42, 49, 63, 75, 89, 110, 127, 138, 155, 183, 218, 246, 270, 286, 298, 303, 301, 286, 242, 178, 117, 68, 25, 0, -14, -23, -30, -37, -42, -44, -37, -30, -28, -35, -42, -35, -21, -11, -4, 0, 4, 7, 16, 30, 32, 25, 30, 39, 32, 30, 39, 35, 28, 47, 72, 70, 58, 58, 61, 47, 35]"
1713643166427660317,"[49, 61, 54, 51, 44, 35, 42, 42, 23, 11, 0, -25, -18, 14, 4, -11, 0, 7, 9, 16, 18, 18, 23, 25, 32, 47, 54, 51, 49, 54, 77, 96, 82, 51, 35, 37, 49, 37, 11, 11, 25, 25, 35, 47, 18, 115, 540, 1039, 1072, 413, -235, -122, 145, 16, -51, 42, 37, 18, 54, 63, 54, 63, 91, 105, 84, 89, 141, 155, 124, 127, 159, 197, 228]"
