time,ecg
1714133945983880000,"[10159, 10772, 11338, 11861, 12359, 12850, 13301, 13694, 14077, 14446, 14787, 15113, 15403, 15698, 16016, 16242, 16402, 16615, 16817, 16946, 17102, 17272, 17392, 17497, 17591, 17682, 17785, 17855, 17902, 17950, 17989, 18077, 18137, 18041, 17986, 18029, 18006, 17965, 17974, 17948, 17888, 17835, 17775, 17723, 17684, 17636, 17560, 17440, 17322, 17255, 17193, 17114, 17020, 16903, 16776, 16661, 16563, 16457, 16325, 16186, 16074, 15968, 15856, 15729, 15678, 15901, 16280, 16203, 15360, 14633, 14710, 14760, 14435]"
1714133946545009379,"[14293, 14272, 14101, 13912, 13816, 13716, 13541, 13409, 13325, 13126, 12913, 12824, 12730, 12599, 12481, 12337, 12203, 12127, 12033, 11896, 11762, 11626, 11487, 11381, 11271, 11082, 10852, 10674, 10514, 10327, 10178, 10058, 9890, 9730, 9627, 9524, 9416, 9318, 9176, 9028, 8939, 8850, 8740, 8644, 8532, 8402, 8311, 8227, 8129, 8031, 7918, 7798, 7710, 7621, 7527, 7436, 7326, 7216, 7134, 7048, 6959, 6873, 6772, 6672, 6590, 6518, 6442, 6353, 6260, 6168, 6070, 5982, 5917]"
1714133947106138758,"[5840, 5739, 5658, 5600, 5536, 5464, 5382, 5298, 5227, 5169, 5104, 5037, 4958, 4877, 4819, 4747, 4671, 4596, 4498, 4419, 4381, 4333, 4275, 4218, 4139, 4150, 4472, 5006, 5100, 4287, 3470, 3585, 3796, 3549, 3463, 3535, 3448, 3367, 3369, 3328, 3259, 3221, 3175, 3113, 3079, 3060, 3026, 2991, 2967, 2943, 2923, 2911, 2897, 2875, 2856, 2837, 2806, 2772, 2729, 2667, 2590, 2494, 2403, 2341, 2284, 2231, 2192, 2161, 2128, 2106, 2085, 2058, 2037]"
1714133947667268137,"[2013, 1989, 1972, 1950, 1924, 1905, 1878, 1855, 1840, 1797, 1735, 1692, 1672, 1658, 1641, 1617, 1600, 1588, 1567, 1538, 1505, 1481, 1471, 1459, 1442, 1428, 1411, 1394, 1387, 1378, 1356, 1342, 1327, 1308, 1298, 1289, 1270, 1253, 1246, 1229, 1215, 1205, 1193, 1176, 1159, 1145, 1136, 1126, 1124, 1126, 1112, 1061, 1004, 987, 982, 961, 941, 944, 944, 925, 896, 973, 1346, 1869, 1893, 1097, 462, 695, 879, 663, 654, 750, 695]"
1714133948228397516,"[661, 699, 687, 644, 639, 644, 615, 601, 630, 649, 635, 620, 632, 659, 680, 704, 728, 738, 738, 742, 742, 738, 716, 668, 608, 558, 524, 498, 472, 448, 436, 440, 445, 450, 450, 438, 433, 452, 464, 460, 455, 445, 431, 421, 421, 431, 426, 414, 412, 419, 424, 426, 417, 402, 402, 409, 407, 407, 407, 395, 388, 397, 405, 402, 390, 378, 381, 388, 376, 340, 311, 311, 321]"
1714133948789526895,"[325, 316, 304, 289, 285, 297, 304, 304, 299, 270, 232, 230, 249, 266, 282, 278, 244, 227, 239, 239, 230, 220, 208, 198, 191, 196, 325, 716, 1147, 1035, 280, -129, 186, 292, 71, 98, 198, 158, 148, 184, 179, 174, 201, 215, 213, 218, 232, 251, 270, 285, 294, 311, 335, 359, 383, 400, 405, 402, 395, 385, 359, 294, 213, 160, 124, 88, 62, 47, 50, 57, 59, 71, 88]"
1714133949350656278,"[88, 91, 100, 105, 117, 131, 119, 95, 105, 122, 122, 129, 134, 134, 139, 143, 146, 150, 146, 146, 150, 150, 150, 160, 155, 141, 139, 141, 146, 153, 158, 158, 158, 155, 160, 167, 162, 165, 170, 165, 167, 177, 172, 148, 131, 134, 139, 134, 131, 131, 119, 103, 100, 218, 575, 975, 860, 107, -318, 0, 131, -62, -23, 67, 16, 11, 59, 67, 64, 79, 88, 98, 115]"
1714133949911775485,"[129, 141, 155, 170, 186, 210, 237, 263, 282, 282, 266, 270, 280, 263, 232, 189, 119, 62, 38, 21, 0, -9, -7, 2, 9, 14, 16, 19, 26, 43, 55, 62, 62, 64, 74, 86, 93, 95, 91, 86, 95, 103, 107, 107, 98, 93, 86, 52, 23, 28, 31, 28, 43, 59, 64, 67, 62, 59, 74, 83, 86, 88, 83, 81, 93, 103, 107, 105, 95, 88, 98, 117, 143]"
1714133950472915036,"[153, 134, 105, 93, 88, 81, 74, 55, 50, 67, 67, 57, 213, 671, 1145, 944, 52, -340, 2, 47, -153, -79, -2, -57, -52, -19, -19, -4, 19, 26, 26, 33, 47, 69, 88, 107, 122, 134, 150, 153, 155, 186, 198, 191, 196, 198, 182, 148, 95, 45, 11, -4, -11, -16, -28, -28, -11, 4, 9, 9, 9, 19, 31, 40, 47, 50, 47, 55, 64, 67, 69, 59, 45]"
1714133951034034245,"[47, 64, 71, 69, 69, 64, 62, 67, 74, 62, 33, 19, 28, 38, 47, 52, 50, 50, 55, 59, 67, 74, 74, 79, 79, 76, 86, 91, 91, 103, 107, 76, 23, -7, 9, 21, 14, 21, 23, 11, 14, 40, 234, 692, 1032, 683, -91, -256, 81, 55, -117, -43, 2, -47, -35, 2, 4, 9, 26, 35, 38, 43, 43, 45, 69, 95, 112, 141, 167, 191, 215, 230, 232]"
1714133951595143276,"[237, 232, 213, 184, 143, 88, 33, -19, -52, -52, -52, -62, -57, -47, -43, -28, -14, -11, -7, 0, 9, 4, 2, 14, 11, -14, -14, 14, 19, 11, 21, 28, 31, 38, 45, 43, 43, 45, 55, 67, 69, 67, 67, 71, 81, 88, 91, 95, 115, 129, 115, 98, 93, 69, 50, 64, 83, 83, 83, 79, 81, 254, 683, 1068, 836, 43, -242, 122, 170, -19, 45, 100, 40]"
1714133952156272655,"[50, 79, 64, 67, 76, 76, 91, 107, 117, 119, 95, 64, 69, 83, 95, 122, 134, 129, 119, 115, 119, 110, 69, 21, -16, -52, -76, -95, -112, -110, -93, -81, -69, -67, -69, -52, -28, -16, -7, -4, -4, 7, 23, 26, 16, 0, 4, 19, 23, 28, 38, 31, 26, 38, 50, 52, 55, 57, 55, 59, 69, 79, 79, 74, 69, 76, 86, 93, 93, 86, 83, 93, 100]"
1714133952717407125,"[100, 95, 86, 79, 91, 110, 98, 59, 28, 21, 7, -9, 2, 14, 7, 0, 26, 273, 824, 1236, 822, -79, -239, 129, 69, -93, 7, 43, -7, 26, 57, 45, 52, 69, 69, 67, 62, 69, 81, 83, 95, 124, 141, 155, 182, 201, 213, 222, 213, 186, 167, 131, 81, 38, 0, -35, -57, -69, -71, -69, -69, -67, -55, -47, -40, -26, -23, -35, -43, -33, -16, -9, -11]"
1714133953278561935,"[-4, 7, 2, -19, -38, -33, -16, -11, -11, -2, -9, -31, -21, -2, -4, 0, 9, 9, 21, 35, 33, 35, 47, 50, 55, 59, 47, 33, 38, 45, 47, 55, 71, 93, 103, 95, 76, 69, 74, 74, 76, 81, 91, 93, 86, 91, 273, 769, 1236, 985, 103, -237, 117, 153, -38, 31, 93, 33, 35, 67, 62, 67, 74, 74, 81, 93, 91, 91, 83, 64, 74, 112, 136]"
1714133953839691314,"[158, 177, 174, 165, 165, 158, 131, 95, 38, -14, -40, -59, -83, -103, -110, -100, -88, -95, -105, -103, -86, -69, -55, -43, -35, -33, -28, -11, 2, 11, 14, 9, 9, 23, 33, 35, 35, 33, 35, 45, 57, 59, 59, 52, 55, 67, 74, 79, 83, 71, 57, 64, 76, 83, 81, 71, 76, 88, 95, 100, 88, 55, 50, 86, 112, 107, 79, 57, 64, 79, 79, 83, 83]"
1714133954400820693,"[79, 79, 74, 184, 591, 1095, 1068, 306, -254, -14, 162, -50, -71, 35, -2, -21, 28, 28, 19, 45, 62, 69, 83, 88, 83, 88, 110, 129, 143, 153, 172, 201, 220, 227, 213, 186, 170, 150, 115, 71, 19, -38, -67, -71, -71, -74, -71, -71, -64, -52, -38, -31, -35, -59, -76, -52, -28, -31, -28, -19, -16, -7, 4, 7, 4, 9, 16, 19, 28, 33, 31, 33, 28]"
1714133954961950072,"[11, 19, 33, 31, 31, 35, 43, 43, 26, 14, 23, 35, 35, 40, 45, 57, 86, 98, 71, 23, 4, 21, 26, 19, 31, 40, 38, 31, 35, 220, 711, 1131, 822, -14, -254, 105, 110, -67, -4, 50, 38, 62, 69, 62, 64, 35, 0, 28, 83, 95, 86, 100, 105, 119, 160, 158, 129, 160, 227, 242, 182, 146, 184, 186, 95, 21, -7, -57, -91, -107, -119, -86, -55]"
1714133955523079451,"[-69, -76, -67, -57, -55, -59, -64, -57, -57, -64, -52, -11, 7, -19, -28, 2, 11, 4, 9, 11, 19, 35, 21, 4, 31, 35, 7, 28, 52, 26, 19, 69, 95, 67, 35, 52, 98, 103, 71, 33, -11, -16, 40, 67, 38, 19, 38, 55, 16, 74, 486, 1073, 1128, 361, -280, -71, 153, -43, -74, 45, 7, -23, 52, 71, 33, 47, 83, 93, 107, 112, 105, 119, 148]"
1714133956084239352,"[162, 177, 186, 189, 206, 237, 244, 234, 210, 167, 131, 103, 50, -23, -91, -124, -127, -122, -115, -107, -105, -105, -93, -74, -57, -47, -45, -35, -23, -14, -19, -45, -57, -45, -28, -14, -4, -7, -11, -7, 7, 14, 19, 26, 31, 23, 11, 26, 50, 55, 38, 19, 21, 28, 35, 40, 50, 64, 64, 57, 88, 292, 735, 1035, 656, -88, -213, 136, 127, -26, 52, 107, 62]"
1714133956645368731,"[71, 103, 91, 98, 119, 110, 95, 112, 139, 158, 174, 179, 174, 196, 232, 256, 275, 285, 282, 275, 261, 237, 194, 112, 31, -2, -19, -33, -40, -55, -69, -57, -47, -45, -35, -28, -31, -40, -43, -35, -33, -38, -47, -52, -45, -31, -21, -26, -21, -14, -19, -11, -2, -2, 2, 16, 31, 28, 9, -2, 4, 9, 7, 16, 26, 23, 31, 47, 155, 484, 814, 687, 69]"
1714133957206498110,"[-313, -57, 131, -19, -33, 57, 35, 16, 47, 33, 16, 47, 67, 67, 83, 93, 79, 88, 124, 141, 158, 189, 215, 234, 249, 254, 244, 222, 186, 141, 91, 35, -9, -35, -50, -55, -52, -57, -59, -50, -35, -23, -16, -16, -11, 2, 16, 26, 31, 28, 28, 35, 47, 52, 52, 47, 35, 35, 35, 21, 0, -9, -7, -2, 7, 28, 47, 33, -4, -28, -23, -31, -43]"
1714133957767627489,"[-43, -35, -26, -21, -23, 28, 311, 817, 1025, 409, -381, -304, 31, -112, -196, -59, -52, -95, -57, -47, -62, -35, -4, -7, -4, 16, 43, 64, 86, 105, 119, 146, 182, 213, 232, 234, 225, 222, 220, 198, 155, 98, 38, 9, -2, -14, -19, -26, -33, -23, -11, -19, -26, -21, -16, -4, 11, 21, 23, 21, 21, 31, 38, 40, 43, 38, 31, 40, 47, 50, 50, 45, 45]"
1714133958328756868,"[47, 31, 4, 4, 19, 33, 57, 59, 38, 26, 14, -2, 7, 26, 23, -2, -38, -62, 2, 381, 1028, 1296, 596, -301, -239, 100, -79, -189, -74, -88, -124, -71, -57, -67, -50, -35, -31, -16, 2, 19, 33, 45, 55, 71, 98, 127, 148, 165, 184, 196, 189, 172, 153, 110, 57, 14, -21, -43, -47, -52, -52, -45, -38, -31, -23, -21, -35, -55, -52, -31, -21, -21, -11]"
1714133958889886247,"[-4, -9, -14, -4, 0, 2, -2, -19, -19, -4, -7, -4, 11, 16, 19, 26, 26, 28, 31, 40, 50, 50, 47, 62, 67, 57, 62, 76, 83, 93, 100, 91, 74, 55, 31, 31, 43, 45, 52, 59, 47, 33, 162, 601, 1080, 999, 220, -309, -38, 143, -52, -64, 19, -31, -62, -19, 0, -11, -33, -55, -47, -14, 4, 14, 38, 52, 55, 88, 136, 158, 174, 196, 208]"
1714133959451015630,"[215, 218, 198, 146, 71, 9, -19, -40, -67, -86, -91, -81, -67, -55, -45, -45, -38, -21, -4, 4, 9, 9, 9, 21, 19, 11, 16, 16, 16, 35, 47, 45, 43, 40, 43, 52, 59, 64, 64, 57, 59, 71, 81, 83, 81, 76, 79, 86, 86, 88, 83, 71, 79, 91, 74, 52, 45, 31, 33, 52, 57, 52, 38, 11, 19, 206, 671, 1128, 953, 103, -325, 21, 117]"
1714133960012145009,"[-105, -79, -9, -59, -47, -2, -9, -19, -4, 9, 21, 35, 31, 9, 11, 35, 52, 76, 112, 131, 150, 182, 201, 203, 196, 172, 131, 88, 45, 7, -23, -47, -59, -52, -38, -33, -33, -28, -19, -7, 4, 14, 14, -4, -28, -16, 4, -4, -16, -2, 7, 9, 19, 26, 26, 26, 28, 35, 43, 43, 40, 45, 47, 55, 64, 64, 62, 67, 69, 71, 79, 79, 74]"
1714133960573274388,"[67, 55, 57, 69, 62, 57, 52, 33, 33, 33, 2, -19, -11, -19, -26, -16, -16, -16, -9, -7, -2, 2, 2, 7, 14, 16, 19, 23, 23, 31, 38, 38, 40, 45, 45, 43, 21, -9, -11, -4, 14, 43, 33, 9, 9, 11, 14, 28, 35, 35, 38, 33, 38, 239, 752, 1267, 1143, 254, -292, 11, 136, -86, -55, 43, -4, -2, 43, 33, 23, 38, 40, 33, 47]"
1714133961134424115,"[64, 71, 83, 107, 131, 148, 162, 153, 141, 170, 201, 198, 189, 186, 170, 141, 100, 33, -28, -64, -88, -103, -100, -95, -105, -107, -91, -71, -76, -112, -146, -134, -107, -100, -93, -81, -79, -76, -57, -40, -31, -26, -28, -23, -7, 0, 2, 9, 7, 4, 19, 33, 35, 38, 33, 33, 47, 55, 59, 62, 52, 43, 38, 35, 47, 55, 43, 47, 62, 67, 69, 74, 69]"
1714133961695533146,"[74, 86, 81, 79, 88, 83, 81, 91, 100, 98, 74, 43, 55, 81, 81, 76, 79, 74, 71, 86, 74, 7, -50, -43, -16, -11, -7, 0, -14, -33, -26, 119, 536, 989, 913, 150, -369, -91, 98, -100, -110, -9, -33, -40, 4, 7, -2, 11, 33, 47, 59, 71, 71, 67, 86, 117, 146, 170, 194, 220, 249, 275, 285, 275, 256, 227, 184, 131, 71, 19, -11, -26, -33]"
1714133962256662525,"[-33, -33, -28, -26, -23, -14, -2, -14, -38, -33, -16, -19, -26, -19, -21, -45, -43, -16, -7, -9, 0, 11, 11, 16, 26, 26, 23, 33, 38, 38, 40, 33, 23, 28, 33, 35, 38, 40, 43, 45, 38, 28, 28, 16, -9, -16, -7, -2, -2, 0, 7, 9, 9, 14, 19, 19, 26, 33, 33, 35, 38, 45, 69, 95, 93, 74, 57, 52, 57, 62, 64, 67, 69]"
1714133962817822426,"[71, 71, 93, 333, 860, 1241, 834, -98, -349, 28, 11, -170, -69, -4, -57, -38, 0, -9, 2, 33, 38, 43, 57, 71, 88, 112, 131, 146, 165, 191, 225, 258, 280, 289, 289, 275, 256, 232, 182, 112, 52, 16, -2, -11, -21, -31, -35, -26, -11, -2, 2, 2, 2, 9, 11, 4, 4, 4, 2, 14, 26, 28, 31, 23, 9, 2, -2, -23, -43, -43, -43, -40, -50]"
1714133963378951805,"[-74, -81, -74, -69, -59, -45, -35, -40, -69, -74, -47, -38, -35, -28, -31, -28, -9, 2, 7, 9, 4, 9, 23, 38, 43, 38, 23, 21, 33, 43, 47, 45, 40, 50, 62, 67, 71, 69, 62, 67, 81, 100, 122, 122, 95, 81, 86, 88, 88, 81, 76, 88, 93, 76, 100, 357, 891, 1291, 934, 16, -268, 91, 81, -100, -4, 35, -55, -57, -9, -9, -4, 19, 28]"
1714133963940081184,"[28, 40, 62, 86, 91, 86, 103, 131, 155, 186, 215, 213, 203, 213, 213, 189, 155, 91, 9, -47, -79, -103, -124, -136, -141, -134, -119, -107, -105, -95, -79, -74, -69, -50, -38, -40, -38, -31, -16, -2, -7, -4, 14, 21, 19, 21, 21, 26, 26, 14, 4, 14, 16, 16, 26, 31, 33, 45, 38, 7, 4, 23, 21, 21, 31, 35, 40, 45, 47, 52, 57, 64, 67]"
1714133964501200393,"[62, 69, 74, 71, 79, 83, 76, 71, 71, 81, 107, 115, 81, 57, 47, 31, 33, 52, 52, 52, 55, 55, 129, 428, 879, 1054, 548, -177, -177, 167, 76, -50, 50, 69, 28, 59, 81, 67, 76, 93, 86, 74, 88, 107, 117, 134, 160, 177, 194, 218, 249, 266, 258, 254, 261, 254, 230, 201, 153, 86, 23, -19, -40, -47, -50, -57, -74, -74, -64, -55, -45, -43, -59]"
1714133965062339942,"[-74, -59, -50, -59, -64, -91, -124, -112, -83, -81, -81, -81, -81, -67, -50, -47, -45, -50, -50, -35, -21, -14, -11, -19, -14, 2, 11, 16, 19, 11, 9, 9, 2, 11, 19, 11, 16, 33, 40, 47, 50, 40, 45, 57, 40, 14, 11, 19, 21, 33, 43, 43, 47, 55, 76, 100, 93, 67, 55, 50, 57, 69, 76, 62, 40, 28, 47, 237, 738, 1248, 1095, 198, -299]"
1714133965623469321,"[26, 143, -71, -43, 38, -4, 0, 45, 28, -2, 9, 33, 43, 57, 74, 76, 86, 112, 139, 160, 182, 201, 213, 222, 249, 266, 258, 244, 225, 191, 139, 81, 33, -2, -26, -35, -40, -69, -95, -83, -62, -55, -47, -43, -52, -55, -43, -33, -21, -19, -21, -16, -14, -26, -45, -64, -79, -81, -74, -67, -55, -55, -59, -57, -55, -45, -35, -38, -35, -26, -21, -14, -4]"
1714133966184598704,"[-4, -7, -2, 2, 9, 4, -16, -21, -2, 2, 0, 7, 7, 2, -7, -9, 2, 14, 14, 19, 28, 31, 33, 43, 45, 45, 55, 69, 79, 74, 45, 28, 31, 31, 33, 38, 45, 55, 57, 52, 59, 239, 711, 1167, 985, 139, -316, 0, 122, -71, -35, 43, -4, -4, 45, 50, 45, 59, 62, 64, 83, 103, 119, 131, 141, 162, 196, 225, 242, 263, 287, 309, 318]"
1714133966745728083,"[316, 304, 275, 222, 146, 69, 19, -16, -52, -83, -98, -88, -71, -69, -76, -83, -83, -69, -52, -50, -55, -62, -79, -81, -62, -67, -88, -93, -88, -79, -67, -67, -74, -69, -57, -50, -52, -69, -74, -62, -47, -38, -23, -21, -28, -28, -11, 0, 7, 9, 2, 7, 21, 38, 62, 79, 64, 45, 43, 45, 50, 47, 45, 47, 62, 69, 64, 71, 239, 668, 1076, 886, 86]"
1714133967306857462,"[-306, 31, 146, -43, 0, 88, 31, 16, 62, 71, 71, 86, 69, 47, 50, 45, 55, 86, 98, 105, 141, 182, 210, 239, 258, 268, 282, 280, 249, 208, 155, 86, 33, 4, -19, -38, -50, -57, -47, -33, -23, -21, -21, -19, -4, 7, 14, 16, 19, 26, 35, 45, 52, 50, 45, 47, 52, 59, 62, 55, 38, 31, 38, 45, 45, 43, 38, 26, 19, 23, 31, 26, 26]"
1714133967867986841,"[26, 31, 35, 28, 9, 2, -14, -55, -76, -76, -88, -93, -76, -69, -62, -57, -59, -55, -50, -38, -19, -19, -35, -47, -43, -33, -21, -21, -16, -4, -2, -14, 38, 349, 910, 1227, 723, -150, -251, 98, 9, -129, -19, 7, -43, -11, 21, 9, 16, 40, 45, 33, 43, 67, 76, 91, 112, 131, 158, 186, 208, 232, 251, 266, 273, 268, 251, 220, 174, 112, 64, 26, -26]"
1714133968429116220,"[-76, -83, -74, -69, -64, -59, -69, -81, -71, -59, -74, -81, -62, -55, -47, -31, -23, -28, -23, -16, -7, 4, 4, 2, 7, 7, 11, 28, 31, 14, 14, 26, 28, 35, 38, 16, 2, 14, 28, 33, 28, 14, 2, 0, 2, -2, -4, -16, -35, -31, -16, -11, -11, -14, -16, 2, 33, 40, 9, -16, -11, 7, 16, 19, -4, -45, -43, -16, 47, 347, 834, 1023, 505]"
1714133968990245599,"[-239, -270, 62, -31, -179, -81, -35, -76, -43, -11, -33, -23, 11, 26, 33, 45, 57, 69, 93, 124, 153, 167, 184, 220, 258, 280, 292, 289, 275, 256, 227, 172, 100, 28, -26, -43, -45, -52, -55, -55, -55, -45, -28, -16, -11, -14, -11, 2, 14, 21, 31, 31, 28, 38, 52, 55, 43, 19, 9, 21, 31, 31, 33, 28, 19, 7, 7, 19, 23, 16, 19, 33, 45]"
1714133969551374982,"[47, 45, 47, 67, 86, 71, 28, -7, -16, -9, -2, 4, 9, 7, 4, -9, 40, 354, 867, 1047, 452, -306, -251, 79, -62, -182, -62, -47, -91, -47, -23, -35, -19, 2, 7, 23, 40, 50, 67, 88, 110, 136, 160, 189, 220, 242, 263, 275, 270, 239, 184, 131, 83, 26, -26, -59, -91, -115, -107, -95, -95, -81, -67, -62, -52, -40, -35, -23, -11, -7, 0, 7, 9]"
1714133970112504361,"[19, 26, 26, 28, 33, 33, 40, 43, 38, 31, 14, -4, 7, 19, 9, -4, -11, -4, 9, 11, 11, 19, 23, 26, 35, 45, 43, 43, 45, 52, 62, 64, 62, 59, 57, 64, 86, 107, 112, 95, 71, 64, 52, 19, 7, 23, 23, 11, 4, 4, 91, 462, 1030, 1207, 527, -278, -201, 98, -64, -139, -14, -21, -71, -50, -38, -47, -45, -38, -33, -28, -14, 4, 26]"
1714133970673633740,"[43, 52, 69, 103, 134, 155, 160, 143, 136, 150, 160, 148, 119, 64, 4, -31, -50, -64, -79, -93, -91, -74, -62, -52, -47, -50, -43, -21, -9, -4, -2, -2, 2, 14, 26, 14, -21, -43, -40, -38, -28, -14, -16, -23, -11, 7, 14, 14, 11, 7, 11, 23, 38, 45, 38, 28, 35, 50, 55, 55, 45, 40, 50, 64, 67, 67, 62, 57, 64, 67, 52, 40, 38]"
1714133971234763119,"[45, 67, 93, 98, 74, 50, 40, 33, 26, 31, 19, -7, -4, 0, 23, 273, 795, 1159, 788, -86, -354, 4, 4, -186, -100, -35, -93, -71, -50, -103, -112, -69, -52, -52, -31, -16, -11, 19, 59, 86, 107, 131, 162, 196, 227, 246, 249, 237, 222, 203, 158, 91, 28, -11, -33, -45, -52, -59, -57, -50, -52, -57, -55, -47, -40, -31, -23, -14, -4, -4, 2, 14, 16]"
1714133971795892498,"[23, 33, 33, 35, 43, 38, 40, 47, 45, 45, 52, 55, 55, 45, 26, 28, 40, 38, 43, 55, 45, 11, -9, 4, 33, 35, 14, 7, 11, 14, 21, 28, 31, 40, 47, 43, 31, 129, 515, 1018, 1056, 337, -297, -86, 170, -21, -74, 40, 14, -23, 21, 40, 16, 9, 19, 14, 11, 26, 35, 40, 55, 76, 103, 134, 165, 189, 210, 230, 242, 246, 234, 198, 136]"
1714133972357021877,"[71, 23, -11, -43, -76, -107, -112, -93, -81, -76, -71, -74, -76, -74, -83, -95, -88, -74, -64, -45, -28, -21, -21, -19, -4, 9, 16, 19, 14, 16, 28, 33, 38, 38, 33, 33, 45, 55, 59, 59, 55, 55, 62, 59, 45, 43, 43, 40, 52, 64, 67, 62, 57, 62, 76, 81, 81, 81, 71, 76, 88, 91, 93, 91, 81, 83, 93, 95, 105, 117, 122, 122, 110]"
1714133972918156347,"[93, 93, 81, 59, 62, 81, 76, 38, -33, -35, 234, 793, 1234, 920, -14, -359, 9, 28, -179, -110, -59, -134, -110, -59, -71, -71, -52, -47, -35, -9, 7, 14, 23, 40, 59, 71, 95, 129, 148, 170, 196, 208, 210, 203, 179, 141, 93, 45, 7, -19, -40, -52, -50, -38, -33, -33, -28, -19, -7, 4, 9, 7, 7, 11, 21, 31, 26, 16, 14, 23, 31, 35, 19]"
1714133973479290813,"[-7, -7, 7, 9, 14, 19, 19, 21, 21, 28, 35, 16, -2, 9, 19, 19, 26, 28, 28, 35, 40, 47, 52, 47, 50, 55, 38, 26, 28, 21, 16, 28, 31, 31, 47, 69, 76, 57, 19, 4, 9, -4, -16, -7, -2, -2, -4, -4, 134, 558, 1042, 1020, 256, -345, -95, 122, -81, -103, 2, -33, -50, 0, 9, 0, 7, 2, 0, 16, 35, 55, 64, 83, 119]"
1714133974040410018,"[148, 165, 194, 222, 251, 282, 294, 278, 244, 198, 153, 103, 43, -14, -50, -67, -81, -98, -98, -83, -81, -79, -62, -45, -40, -35, -31, -21, -7, 7, 14, 11, 11, 19, 38, 50, 47, 40, 43, 52, 59, 64, 62, 55, 52, 57, 62, 67, 59, 38, 28, 43, 52, 52, 52, 50, 40, 21, 7, 19, 23, 14, 23, 43, 45, 35, 16, -2, -2, 9, 16, 23, 19]"
1714133974601539397,"[0, -7, -11, 19, 285, 771, 1025, 565, -246, -361, 14, -31, -194, -86, -35, -86, -57, -23, -38, -26, 7, 16, 26, 40, 45, 62, 95, 119, 141, 158, 177, 210, 249, 273, 285, 280, 266, 251, 222, 155, 71, 4, -26, -43, -50, -50, -50, -52, -55, -59, -76, -74, -57, -55, -50, -33, -19, -9, -2, -2, 0, 14, 23, 28, 31, 26, 26, 33, 43, 47, 38, 26, 11]"
1714133975162668776,"[11, 23, 28, 23, 21, 26, 33, 40, 35, 14, 7, 16, 23, 31, 35, 33, 35, 40, 45, 52, 55, 52, 55, 57, 62, 69, 64, 45, 38, 43, 38, 21, 11, 19, 23, 26, 40, 47, 38, 9, -21, -35, -52, -74, -71, -55, -50, -50, -45, -40, 124, 608, 1145, 1073, 215, -366, -83, 81, -129, -117, -9, -52, -74, -38, -40, -43, -16, 0, 2, 21, 38, 50, 69]"
1714133975723798155,"[86, 105, 134, 160, 182, 203, 206, 208, 234, 244, 227, 213, 184, 129, 76, 35, -4, -28, -35, -40, -38, -38, -47, -57, -47, -35, -21, -14, -11, -7, -2, 4, 19, 26, 9, -14, -19, -2, 11, 9, 9, 9, 14, 26, 33, 28, 26, 31, 33, 31, 21, 11, 16, 23, 9, -2, 11, 26, 11, -9, -14, -4, -14, -31, -26, -23, -28, -16, -7, -7, -9, -9, 0]"
1714133976284927538,"[14, 14, 7, -11, -28, -9, 21, 45, 43, 9, -2, 14, 11, -4, -2, 0, -4, 9, 26, 79, 342, 812, 1066, 630, -141, -237, 117, 59, -112, -35, 11, -23, -11, 11, 11, 28, 52, 62, 67, 74, 88, 110, 131, 155, 172, 174, 194, 234, 273, 292, 299, 299, 297, 287, 258, 206, 134, 64, 26, 4, -7, -14, -21, -26, -16, -2, 4, 7, 4, 4, 14, 23, 35]"
1714133976846056917,"[40, 33, 33, 43, 38, 28, 33, 33, 28, 38, 50, 47, 26, 7, 11, 23, 26, 26, 28, 23, 19, -2, -33, -35, -23, -23, -26, -14, 0, 2, 0, -4, -14, -23, -21, -31, -45, -47, -43, -33, -26, -23, -23, -19, -16, -4, 19, 40, 40, 23, 7, 7, 14, 16, 21, 26, 28, 38, 43, 38, 194, 666, 1179, 1100, 261, -304, -19, 146, -86, -86, 23, -16, -31]"
1714133977407171039,"[19, 19, 16, 40, 47, 50, 67, 79, 88, 93, 91, 107, 141, 155, 155, 160, 189, 225, 234, 232, 230, 213, 174, 127, 69, 16, -16, -40, -62, -59, -50, -52, -45, -35, -28, -16, -7, -4, 0, 4, 11, 23, 28, 26, 31, 35, 40, 45, 50, 50, 45, 47, 55, 59, 59, 55, 52, 52, 57, 45, 21, 7, 9, 14, 19, 23, 23, 21, 19, 21, 16, 7, 0]"
1714133977968305505,"[-11, -23, -16, -4, -2, -4, -21, -50, -52, -28, -19, -26, -38, -57, -55, -31, -23, -26, -35, -35, -23, -16, -11, -2, 0, 14, 47, 59, 43, 19, 11, 19, 35, 40, 45, 55, 50, 33, 71, 352, 898, 1272, 879, -16, -246, 119, 100, -81, 0, 47, -11, 2, 38, 26, 21, 45, 62, 69, 83, 93, 100, 115, 141, 167, 194, 210, 225, 254, 287, 306, 313, 309, 266]"
1714133978529414536,"[218, 191, 153, 83, 19, -21, -33, -33, -38, -64, -105, -107, -79, -67, -62, -50, -62, -74, -57, -38, -33, -23, -21, -26, -16, -9, -21, -31, -43, -55, -47, -31, -28, -35, -38, -33, -26, -19, -14, -11, -14, -28, -38, -23, -11, -14, -14, -4, 2, 9, 19, 23, 19, 19, 38, 64, 81, 79, 64, 45, 43, 50, 50, 50, 45, 14, 2, 21, 26, 124, 488, 939, 970]"
1714133979090543915,"[318, -323, -155, 127, -35, -93, 19, -21, -76, -21, 4, -9, 14, 33, 35, 50, 69, 83, 100, 117, 139, 162, 189, 220, 249, 270, 292, 309, 306, 299, 282, 234, 162, 83, 23, -4, -26, -43, -40, -35, -35, -31, -23, -19, -11, 0, 2, 7, 14, 19, 33, 40, 40, 40, 45, 47, 55, 47, 14, -7, 7, 16, 7, -9, -21, -38, -43, -26, -16, -16, -16, -16, -26]"
1714133979651673298,"[-31, -26, -38, -55, -64, -74, -67, -50, -47, -50, -45, -40, -33, -21, -14, -16, -14, -4, 7, 14, 19, 14, 7, 4, 11, 33, 55, 40, 11, 9, 23, 31, 33, 33, 31, 40, 50, 45, 93, 390, 937, 1248, 754, -110, -213, 131, 38, -98, 19, 45, -19, -19, -4, -2, 19, 23, 7, 2, 21, 40, 57, 83, 100, 107, 131, 167, 198, 227, 246, 246, 254, 263, 256]"
1714133980212772159,"[234, 194, 129, 71, 40, 14, -4, -21, -31, -28, -21, -16, -11, -23, -55, -62, -40, -26, -28, -28, -23, -14, 0, 9, 16, 14, 7, 14, 23, 28, 35, 26, 4, 4, 16, 19, 14, 14, 14, 21, 26, 21, 7, -16, -45, -69, -69, -71, -79, -74, -67, -62, -50, -35, -31, -40, -38, -19, -4, -4, -9, -9, 4, 33, 62, 59, 31, 11, 16, 23, 38, 45, 38]"
1714133980773901538,"[38, 47, 52, 103, 357, 814, 1073, 668, -100, -249, 93, 52, -117, -23, 31, -14, 4, 40, 33, 35, 57, 71, 74, 83, 100, 112, 129, 155, 174, 194, 222, 246, 273, 299, 306, 306, 289, 237, 182, 141, 83, 21, -23, -55, -74, -76, -79, -76, -69, -64, -52, -43, -40, -28, -16, -14, -7, 2, 7, 16, 28, 31, 31, 35, 38, 45, 50, 45, 52, 55, 35, 26, 28]"
1714133981335030917,"[16, 11, 14, 16, 23, 28, 21, 11, -7, -26, -23, -23, -40, -45, -38, -31, -23, -26, -28, -19, 4, 28, 38, 16, -7, -9, -4, 2, 7, -14, -40, -35, -21, -23, 100, 517, 1032, 1054, 299, -330, -100, 129, -69, -95, 19, -4, -23, 23, 23, 11, 38, 57, 59, 74, 86, 86, 105, 131, 153, 170, 184, 196, 220, 254, 278, 282, 273, 263, 254, 222, 170, 105, 45]"
1714133981896155213,"[7, -7, -14, -19, -26, -50, -67, -45, -26, -19, -19, -21, -16, 0, 14, 19, 21, 16, 19, 23, 11, -16, -43, -50, -35, -23, -19, -11, -11, -16, -11, 0, 9, 14, 11, 9, 14, 26, 33, 38, 35, 28, 35, 47, 55, 57, 52, 45, 52, 64, 62, 45, 19, 9, 21, 33, 33, 33, 28, 21, 23, 28, 40, 47, 21, -9, -14, -9, -7, -7, -9, -11, -2]"
1714133982457289679,"[4, 0, 23, 263, 783, 1176, 834, -50, -328, 11, 2, -184, -103, -50, -124, -122, -71, -69, -57, -31, -23, -21, -2, 19, 38, 57, 74, 93, 117, 148, 179, 206, 225, 239, 246, 249, 246, 227, 186, 134, 76, 40, 11, -23, -45, -40, -38, -35, -26, -21, -16, -9, -4, 2, 16, 19, 19, 26, 26, 33, 43, 40, 40, 47, 45, 45, 55, 55, 50, 52, 52, 52, 57]"
1714133983018388540,"[55, 52, 35, 19, 31, 40, 19, -2, -4, -7, -11, -31, -57, -45, -28, -33, -26, -19, -28, -33, -35, -45, -50, -45, -40, -31, -23, -33, -28, -7, -7, -11, -9, -4, -2, 2, 19, 23, 7, -4, -4, 0, 9, 23, 28, 26, 21, 28, 110, 414, 874, 1042, 505, -210, -179, 155, 47, -67, 33, 43, 9, 52, 69, 52, 64, 79, 69, 69, 88, 100, 105, 119, 122]"
1714133983579517919,"[117, 146, 177, 194, 225, 263, 278, 275, 254, 218, 194, 162, 105, 47, -2, -35, -43, -43, -43, -40, -45, -40, -23, -11, -7, -19, -33, -23, 2, 11, 19, 31, 28, 28, 40, 52, 57, 57, 52, 52, 62, 67, 69, 64, 57, 59, 69, 74, 76, 79, 62, 45, 47, 59, 59, 52, 43, 33, 23, 31, 33, 9, -2, 14, 4, -26, -40, -55, -71, -62, -45, -38, -31]"
1714133984140647298,"[-31, -33, -26, -14, 98, 472, 932, 941, 254, -337, -122, 124, -79, -127, 0, -19, -59, -26, -16, -23, 0, 23, 35, 50, 59, 69, 91, 115, 136, 155, 179, 208, 234, 263, 287, 292, 285, 278, 266, 234, 182, 117, 64, 26, 4, -2, -7, -14, -28, -38, -26, -9, -7, -4, 4, 11, 14, 2, -19, -14, 2, 4, 11, 23, 23, 21, 26, 31, 35, 43, 40, 38, 43]"
1714133984701766507,"[45, 47, 52, 52, 52, 57, 55, 43, 28, 9, 4, 14, 19, 23, 28, 26, 14, 9, 14, 19, 21, 21, 26, 31, 31, 28, 16, 2, -2, 0, 11, 33, 33, 7, -7, -7, -7, 0, 11, 4, -7, 0, -2, 4, 203, 697, 1155, 944, 71, -337, -14, 45, -150, -88, -11, -62, -57, -14, -9, -7, 9, 16, 26, 43, 59, 74, 91, 107, 124, 148, 177, 186, 191]"
1714133985262875538,"[210, 232, 242, 246, 244, 220, 167, 103, 57, 21, -14, -40, -57, -62, -52, -40, -35, -40, -38, -21, -7, 7, 11, 4, 7, 21, 28, 33, 45, 45, 33, 21, 28, 38, 40, 33, 28, 35, 43, 47, 52, 43, 33, 23, 2, 2, 7, -14, -21, -2, 9, 7, 9, 9, 2, 4, 7, 0, -4, -23, -33, -7, 9, 2, -7, -31, -47, -33, -23, -23, -16, -16, -9]"
1714133985824004917,"[2, 7, 33, 222, 651, 1028, 800, 19, -316, 2, 62, -115, -50, 26, -21, -21, 11, 14, 28, 50, 62, 59, 57, 71, 98, 115, 134, 148, 165, 196, 230, 258, 282, 292, 287, 287, 261, 206, 155, 103, 35, -7, -28, -45, -62, -69, -64, -52, -40, -31, -26, -26, -21, -19, -23, -19, -7, -4, 0, 14, 26, 28, 28, 31, 33, 40, 50, 52, 50, 45, 47, 55, 62]"
1714133986385134300,"[62, 59, 57, 59, 64, 71, 57, 35, 38, 47, 50, 52, 50, 38, 38, 52, 59, 59, 35, 14, 19, 21, 21, 28, 23, 9, 2, -9, -38, 69, 481, 980, 927, 127, -417, -122, 64, -139, -131, -23, -59, -69, -26, -19, -28, -26, -16, -2, 9, 26, 45, 57, 76, 103, 124, 153, 184, 206, 230, 249, 256, 261, 254, 232, 194, 139, 79, 38, 9, -14, -26, -28, -28]"
1714133986946243335,"[-21, -14, -14, -14, -16, -11, 2, 9, 9, 4, -9, -9, 9, 16, 11, 11, 14, 19, 31, 33, 28, 21, 0, -11, 2, 11, 9, 7, 11, 23, 31, 33, 33, 33, 35, 35, 26, 21, 23, 23, 26, 35, 45, 47, 45, 45, 47, 55, 69, 88, 95, 91, 76, 62, 64, 67, 59, 55, 67, 76, 69, 47, 26, 150, 584, 1102, 1100, 321, -321, -98, 115, -98, -122]"
1714133987507362540,"[-23, -81, -103, -45, -40, -50, -40, -57, -69, -38, -9, 9, 21, 21, 21, 28, 59, 98, 119, 134, 160, 184, 196, 194, 174, 136, 83, 21, -31, -57, -79, -100, -100, -81, -71, -69, -64, -59, -47, -31, -14, -9, -9, -7, 4, 16, 23, 31, 26, 23, 35, 45, 43, 43, 43, 43, 50, 59, 55, 38, 23, 23, 31, 43, 57, 55, 40, 43, 57, 64, 67, 71, 67]"
1714133988068481749,"[55, 57, 74, 79, 69, 62, 59, 52, 52, 71, 33, -26, -19, 11, 9, 9, 7, -9, -26, -23, -11, 86, 440, 925, 1008, 366, -313, -198, 81, -79, -165, -47, -45, -88, -52, -31, -38, -19, 2, 4, 16, 33, 45, 64, 83, 103, 127, 155, 177, 198, 213, 218, 227, 237, 230, 210, 184, 127, 62, 11, -26, -45, -55, -62, -57, -50, -45, -35, -28, -26, -16, -14, -35]"
1714133988629616215,"[-52, -35, -19, -11, -2, 4, 9, -2, -21, -26, -23, -19, -9, -7, -4, 7, 14, 11, 16, 21, 23, 35, 43, 38, 43, 52, 55, 59, 64, 64, 64, 67, 69, 76, 81, 79, 76, 74, 81, 100, 117, 103, 69, 50, 55, 59, 59, 57, 57, 59, 69, 74, 64, 98, 371, 905, 1231, 776, -95, -254, 105, 47, -110, -7, 21, -69, -91, -62, -62, -67, -57, -50, -52]"
1714133989190720159,"[-52, -40, -19, 0, -4, -4, 26, 69, 100, 127, 143, 153, 167, 179, 174, 150, 100, 45, 2, -26, -47, -64, -81, -83, -67, -55, -45, -40, -40, -33, -14, -7, -14, -23, -23, -11, 0, 9, 19, 16, 11, 21, 31, 38, 45, 40, 31, 35, 50, 55, 55, 52, 45, 50, 59, 64, 69, 62, 23, 16, 40, 47, 45, 47, 35, 23, 35, 50, 47, 40, 40, 52, 59]"
1714133989751849542,"[62, 64, 59, 55, 59, 67, 69, 64, 55, 62, 79, 69, 50, 43, 33, 19, 16, 28, 33, 28, 16, 11, 153, 589, 1100, 1073, 258, -383, -146, 62, -141, -158, -52, -88, -100, -50, -47, -57, -33, -16, -11, 2, 21, 33, 47, 62, 81, 107, 134, 146, 141, 139, 165, 191, 194, 182, 160, 131, 95, 45, -2, -38, -62, -79, -79, -67, -62, -62, -57, -47, -31, -19, -16]"
1714133990312978921,"[-9, 0, 2, 4, 16, 19, 23, 33, 31, 26, 23, 9, 4, 11, -4, -19, -14, -7, 2, 11, 4, 7, 19, 21, 26, 28, 31, 38, 45, 43, 47, 55, 55, 55, 55, 57, 69, 71, 62, 69, 86, 88, 59, 7, -14, -4, -11, -26, -11, -2, -7, -16, -28, -26, 55, 371, 822, 925, 342, -328, -234, 86, -40, -136, -26, -19, -55, -14, 4, -4, 9, 31, 43]"
1714133990874077782,"[52, 62, 71, 88, 110, 122, 122, 131, 143, 158, 196, 230, 234, 232, 222, 210, 184, 141, 79, 16, -26, -40, -45, -50, -50, -52, -47, -35, -26, -16, -11, -16, -14, 0, 2, -16, -31, -28, -28, -21, -2, 4, 7, 2, 4, 19, 28, 31, 33, 23, 23, 38, 45, 47, 47, 43, 45, 55, 62, 67, 64, 55, 59, 71, 76, 79, 76, 69, 69, 69, 55, 52, 55]"
1714133991435207161,"[59, 81, 93, 69, 43, 31, 19, 23, 38, 40, 38, 14, -16, -31, 0, 249, 776, 1155, 757, -129, -342, 31, 7, -179, -91, -31, -79, -71, -74, -110, -93, -55, -43, -33, -11, -2, 9, 38, 67, 91, 112, 134, 158, 191, 220, 237, 244, 237, 227, 210, 179, 127, 69, 21, -7, -19, -21, -21, -23, -26, -31, -38, -28, -14, -11, -9, 0, 9, 19, 26, 26, 26, 31]"
1714133991996336540,"[40, 45, 45, 45, 47, 47, 47, 52, 38, 16, 19, 28, 31, 35, 33, 28, 33, 38, 38, 35, 16, -9, -19, -9, 2, 7, 7, 11, 19, 23, 28, 35, 33, 31, 23, 16, 23, 28, 23, 28, 45, 59, 76, 67, 26, 2, -2, -11, -11, -4, -4, -11, -23, -35, -14, 182, 666, 1124, 929, 67, -352, -14, 74, -127, -74, 4, -43, -38, 2, 0, 4, 26, 33]"
1714133992557435401,"[38, 55, 76, 91, 95, 98, 98, 119, 160, 182, 186, 196, 203, 203, 186, 167, 158, 127, 79, 35, -2, -31, -57, -74, -74, -57, -47, -45, -40, -35, -26, -9, 9, 16, 7, 7, 19, 31, 40, 47, 43, 38, 38, 28, 31, 40, 33, 28, 35, 45, 55, 57, 47, 47, 57, 62, 69, 76, 67, 64, 79, 86, 83, 86, 81, 71, 67, 69, 71, 71, 74, 88, 98]"
1714133993118564784,"[83, 55, 14, -31, -40, -31, -57, -91, -86, -81, -81, 31, 402, 850, 872, 227, -369, -186, 95, -50, -115, -11, -16, -38, 4, 23, 14, 23, 45, 59, 76, 93, 100, 98, 100, 119, 153, 184, 198, 218, 251, 275, 287, 292, 278, 249, 218, 167, 110, 59, 16, -14, -21, -16, -16, -14, -16, -14, -2, 9, 16, 21, 19, 21, 35, 40, 28, 23, 31, 35, 40, 35, 7]"
1714133993679663645,"[-7, 4, 11, 14, 23, 31, 28, 26, 26, 33, 43, 38, 16, 9, 21, 31, 35, 40, 38, 40, 45, 50, 62, 62, 47, 28, 31, 59, 88, 88, 62, 45, 47, 52, 45, 28, 28, 38, 35, 33, 33, 139, 544, 1085, 1133, 366, -325, -141, 103, -88, -131, -16, -43, -81, -33, -14, -38, -38, -23, -19, -11, 4, 19, 35, 47, 40, 50, 91, 119, 146, 177, 191, 206]"
1714133994240793024,"[215, 210, 198, 174, 122, 67, 16, -21, -43, -69, -95, -88, -67, -52, -45, -50, -52, -33, -21, -23, -19, -11, -2, 9, 16, 16, 19, 21, 33, 43, 40, 33, 35, 38, 43, 47, 55, 50, 40, 45, 55, 59, 59, 62, 64, 64, 71, 67, 45, 35, 45, 47, 52, 64, 64, 59, 57, 38, 23, 50, 81, 71, 38, 33, 45, 45, 33, 11, 4, 21, 28, 28, 45]"
1714133994801912233,"[170, 520, 877, 752, 74, -340, -83, 55, -105, -74, 9, -35, -50, -14, -4, 4, 26, 28, 4, 2, 33, 67, 88, 95, 103, 127, 165, 201, 230, 249, 261, 268, 273, 270, 244, 201, 150, 100, 52, 7, -26, -35, -45, -45, -31, -16, -2, -4, -26, -33, -31, -28, -23, -16, -7, 2, 9, 21, 28, 28, 28, 38, 55, 52, 35, 35, 33, 40, 57, 64, 67, 59, 43]"
1714133995363021264,"[47, 57, 62, 69, 62, 62, 79, 88, 88, 81, 67, 62, 59, 40, 38, 47, 40, 35, 62, 83, 69, 50, 67, 196, 529, 872, 759, 105, -318, -40, 148, -31, -38, 52, 16, 11, 50, 26, 0, 9, 14, 16, 7, -16, -19, 21, 62, 74, 83, 117, 150, 167, 184, 206, 220, 225, 213, 191, 153, 98, 43, -2, -52, -71, -62, -67, -52, -19, -26, -38, -26, -16, -9]"
1714133995924120125,"[0, 9, 28, 33, 23, 38, 52, 31, 19, 28, 23, 33, 52, 55, 62, 62, 52, 62, 64, 52, 55, 50, 31, 31, 40, 26, 11, 43, 91, 88, 71, 91, 112, 88, 47, 16, -2, 7, 21, 21, 31, 50, 67, 59, 110, 421, 884, 973, 364, -256, -91, 196, 33, -50, 52, 52, 26, 57, 59, 52, 74, 79, 71, 91, 117, 122, 129, 150, 160, 155, 165, 198, 230]"
1714133996485249508,"[239, 251, 258, 244, 215, 179, 141, 86, 31, -9, -52, -79, -95, -119, -122, -100, -83, -74, -76, -69, -57, -67, -64, -33, -9, -28, -67, -45, 7, -26, -69, -23, 7, -28, -40, 2, 9, -19, -38, -38, 14, 74, 45, 9, 14, -14, -23, 0, 11, 31, 45, 47, 55, 35, 11, 35, 43, -2, 2, 67, 79, 38, 23, 21, 131, 556, 1088, 1076, 287, -311, -45, 170, -45]"
1714133997046358543,"[-64, 47, 2, -33, 0, 11, 11, 9, 4, 14, 40, 57, 55, 26, 14, 62, 105, 110, 131, 155, 153, 143, 136, 134, 122, 93, 64, 31, -11, -45, -67, -86, -100, -107, -112, -122, -146, -155, -136, -122, -110, -95, -91, -91, -83, -69, -57, -52, -50, -50, -45, -35, -26, -21, -21, -16, -14, -9, 4, 7, 0, 4, 14, 21, 26, 28, 35, 45, 47, 40, 26, 14, 16]"
1714133997607477748,"[23, 23, 31, 43, 45, 40, 28, 40, 285, 824, 1164, 699, -148, -278, 52, -11, -148, -47, -14, -59, -28, 9, 0, 7, 31, 33, 33, 33, 38, 59, 81, 95, 115, 141, 162, 189, 208, 215, 222, 227, 220, 213, 191, 146, 95, 52, 21, 4, -7, -16, -16, -16, -16, -14, -23, -28, -16, -9, -19, -26, -21, -16, -16, -26, -40, -40, -47, -57, -55, -52, -57, -45, -31]"
1714133998168607127,"[-31, -35, -33, -21, -2, 16, -2, -74, -117, -93, -71, -74, -64, -55, -50, -38, -45, -26, 234, 759, 1008, 460, -292, -246, 103, 0, -112, 4, 21, -21, 11, 33, 28, 52, 74, 74, 81, 91, 105, 131, 155, 167, 174, 191, 222, 251, 268, 278, 275, 261, 239, 218, 189, 134, 69, 28, 14, 2, -7, -11, -19, -21, -7, 4, 11, 16, 16, 21, 33, 45, 55, 55, 40]"
1714133998729705988,"[21, 7, 19, 35, 21, -9, -9, 14, 19, 16, 9, -16, -40, -43, -31, -23, -23, -28, -19, -7, -26, -59, 69, 500, 932, 766, 0, -347, -9, 59, -139, -74, 7, -47, -47, -9, -7, 2, 26, 38, 38, 31, 45, 71, 91, 105, 122, 139, 158, 184, 206, 213, 208, 206, 203, 196, 170, 124, 69, 31, 14, 4, 2, -2, -7, -21, -43, -40, -19, -11, -14, -4, 0]"
1714133999290835367,"[-7, -7, 2, 2, 2, 9, 21, 14, -7, -16, -7, 2, 9, 14, 14, 16, 21, 28, 45, 69, 79, 67, 40, 35, 45, 45, 38, 43, 52, 59, 67, 43, 40, 318, 934, 1320, 776, -174, -268, 112, 9, -134, -11, 2, -62, -38, -21, -26, -16, -19, -16, -2, 4, 14, 33, 47, 64, 74, 67, 74, 100, 117, 131, 134, 112, 100, 98, 76, 43, 4, -33, -47, -55]"
1714133999851964750,"[-62, -62, -59, -59, -52, -62, -71, -47, -28, -28, -21, -11, -4, 2, 4, 7, 11, 7, 14, 23, 26, 21, 19, 14, 16, 26, 31, 31, 31, 33, 35, 43, 55, 71, 88, 86, 62, 45, 47, 50, 35, 35, 57, 62, 50, 43, 40, 194, 690, 1207, 989, 43, -390, 0, 105, -127, -88, -26, -95, -76, -4, -9, -16, 4, 7, 14, 31, 35, 35, 31, 35, 64, 95]"
1714134000413063611,"[119, 131, 136, 148, 165, 165, 160, 150, 105, 43, 2, -16, -43, -74, -100, -115, -105, -88, -71, -55, -52, -50, -28, -11, -9, -9, -7, 4, 19, 21, 26, 28, 16, 16, 38, 45, 38, 38, 33, 38, 55, 57, 52, 40, 21, 23, 38, 50, 43, 11, -2, 7, 23, 38, 38, 23, 26, 43, 52, 93, 337, 807, 1054, 579, -174, -215, 146, 86, -52, 45, 79, 33, 55]"
1714134000974192990,"[74, 57, 69, 88, 81, 74, 81, 91, 105, 122, 136, 143, 136, 136, 155, 172, 162, 143, 134, 124, 112, 83, 33, -14, -52, -81, -93, -93, -91, -93, -88, -76, -69, -55, -38, -45, -81, -100, -86, -64, -57, -52, -40, -31, -19, -9, -7, -4, 4, 7, 11, 16, 19, 23, 40, 43, 38, 50, 67, 83, 86, 64, 50, 55, 50, 52, 64, 64, 59, 50, 35, 52, 196]"
1714134001535291851,"[568, 980, 877, 139, -304, 4, 167, -26, -26, 45, 0, 0, 45, 43, 40, 57, 74, 81, 95, 107, 105, 107, 131, 153, 167, 189, 206, 218, 213, 184, 158, 153, 124, 79, 43, 0, -52, -81, -95, -105, -100, -98, -95, -91, -83, -71, -55, -47, -43, -33, -23, -14, 0, 4, 7, 11, 11, 16, 26, 26, 7, -9, -4, 9, 16, 19, 16, 14, 19, 31, 43, 45, 40]"
1714134002096421230,"[38, 43, 52, 59, 57, 38, 19, 33, 71, 76, 52, 26, 23, 35, 43, 47, 55, 50, 45, 33, 14, 153, 608, 1078, 913, 88, -328, -2, 98, -117, -91, 0, -40, -40, 0, -4, -7, 16, 31, 31, 26, 21, 21, 35, 55, 76, 93, 105, 127, 158, 174, 167, 150, 143, 143, 134, 100, 55, 7, -33, -47, -47, -47, -45, -45, -45, -33, -16, -4, 4, 4, -2, 11]"
1714134002657550613,"[28, 33, 35, 33, 26, 38, 50, 50, 40, 16, -11, -14, 0, 2, -23, -50, -40, -19, -11, -2, 7, 2, 2, 16, 31, 35, 38, 38, 38, 47, 59, 62, 62, 55, 45, 40, 47, 55, 50, 45, 50, 57, 62, 64, 52, 21, -7, -19, -14, -9, -9, -4, -2, 2, 2, 16, 220, 714, 1140, 886, 43, -299, 31, 69, -117, -47, 26, -28, -26, 16, 11, 16, 43]"
1714134003218649474,"[55, 50, 45, 57, 79, 98, 110, 105, 103, 129, 165, 179, 174, 172, 184, 184, 179, 170, 139, 93, 50, 14, -4, -14, -21, -21, -14, -9, -2, 9, 11, 19, 28, 16, 2, 14, 21, 23, 31, 33, 35, 40, 43, 50, 47, 33, 23, 26, 28, 33, 38, 35, 35, 40, 33, 26, 23, 11, -4, -4, 0, 7, 11, 9, 9, 7, 0, 2, 9, 9, 11, 9, -11]"
1714134003779778853,"[-28, -19, -7, -11, -7, 7, 19, 23, 19, 19, 26, 40, 59, 81, 86, 55, 16, 19, 38, 38, 31, 35, 45, 55, 45, 19, 115, 503, 1018, 1088, 383, -258, -67, 155, -33, -55, 59, 28, -4, 35, 50, 47, 67, 79, 69, 74, 98, 117, 129, 146, 153, 162, 189, 220, 239, 254, 251, 239, 239, 234, 210, 177, 131, 79, 26, -28, -55, -59, -76, -93, -88, -81, -88]"
1714134004340877714,"[-91, -88, -81, -67, -52, -45, -45, -47, -38, -26, -16, -11, -26, -52, -43, -31, -45, -45, -35, -40, -31, -11, -7, -2, 4, 0, 4, 19, 28, 33, 31, 28, 38, 52, 57, 57, 55, 55, 64, 71, 76, 79, 71, 67, 79, 91, 91, 83, 69, 64, 79, 88, 88, 83, 81, 95, 112, 93, 57, 40, 35, 38, 47, 57, 62, 67, 67, 55, 76, 304, 766, 1080, 723]"
1714134004902007093,"[-62, -244, 110, 100, -71, 7, 43, -28, -23, -4, -45, -59, -35, -23, -14, 0, 11, 23, 43, 64, 88, 110, 129, 155, 182, 198, 206, 210, 203, 189, 172, 148, 107, 50, 4, -14, -28, -38, -38, -45, -50, -43, -28, -19, -14, -4, 7, 16, 16, 0, -16, -14, 2, 9, 7, 11, 23, 26, 31, 43, 40, 40, 45, 45, 50, 57, 55, 57, 64, 64, 59, 50, 38]"
1714134005463105954,"[47, 57, 57, 62, 69, 69, 64, 47, 38, 59, 86, 86, 62, 33, 28, 43, 43, 35, 43, 50, 47, 45, 38, 127, 448, 831, 812, 198, -318, -127, 100, -55, -91, 14, 0, -23, 11, 26, 26, 50, 64, 59, 50, 47, 69, 98, 117, 131, 148, 170, 203, 239, 258, 261, 261, 263, 261, 242, 201, 139, 76, 31, -7, -33, -38, -43, -47, -33, -14, -9, -7, -4, 0]"
1714134006024235337,"[14, 31, 40, 38, 16, 4, 23, 40, 45, 45, 38, 38, 52, 59, 59, 59, 50, 50, 62, 67, 62, 40, 23, 33, 50, 55, 59, 59, 52, 57, 71, 79, 76, 62, 26, 4, 26, 62, 57, 26, 4, 11, 19, 11, 4, -4, -19, -19, -16, 21, 301, 819, 1076, 558, -239, -270, 79, -19, -153, -35, -7, -52, -19, 2, -9, 9, 35, 43, 50, 57, 67, 86, 110]"
1714134006585334198,"[129, 148, 162, 182, 210, 239, 254, 244, 220, 215, 215, 186, 124, 57, 9, -21, -38, -43, -43, -45, -43, -35, -26, -11, -2, -2, -9, -28, -35, -14, -2, -2, 2, 11, 16, 28, 33, 31, 31, 35, 43, 50, 47, 43, 28, 16, 26, 40, 33, 33, 45, 47, 50, 59, 59, 57, 64, 67, 67, 71, 71, 76, 79, 74, 76, 86, 93, 107, 110, 79, 52, 50, 45]"
1714134007146443233,"[40, 50, 50, 28, 9, -4, -11, 122, 551, 1030, 932, 115, -397, -107, 45, -153, -131, -35, -76, -83, -64, -91, -83, -47, -38, -31, -9, 11, 23, 38, 64, 91, 110, 134, 158, 170, 179, 203, 210, 203, 194, 184, 158, 107, 52, 11, -16, -31, -28, -31, -35, -28, -21, -14, 2, 11, 9, 9, 19, 28, 43, 47, 45, 45, 55, 59, 57, 45, 26, 23, 38, 45, 50]"
1714134007707562438,"[52, 50, 47, 45, 47, 62, 67, 45, 19, 28, 47, 47, 23, -7, -4, 14, 23, 33, 40, 38, 57, 81, 76, 55, 45, 45, 38, 28, 35, 55, 57, 40, 31, 124, 467, 920, 970, 349, -263, -127, 148, 16, -57, 33, 28, 2, 43, 62, 40, 31, 40, 35, 38, 57, 64, 62, 83, 105, 115, 127, 148, 165, 189, 215, 225, 222, 210, 179, 141, 95, 43, 0, -33]"
1714134008268661299,"[-64, -71, -57, -47, -52, -79, -91, -69, -45, -40, -43, -59, -62, -38, -21, -11, 0, -2, -16, -4, 16, 23, 23, 21, 21, 31, 40, 43, 43, 40, 40, 47, 57, 62, 62, 57, 57, 67, 76, 76, 71, 71, 86, 112, 124, 107, 83, 71, 71, 62, 52, 57, 59, 59, 57, 52, 129, 479, 1004, 1131, 460, -244, -93, 191, 16, -52, 64, 50, 21, 64, 57, 16, 26]"
1714134008829760160,"[55, 57, 59, 76, 88, 93, 115, 136, 136, 134, 160, 189, 206, 210, 196, 184, 184, 160, 107, 47, -16, -71, -100, -117, -127, -124, -122, -117, -107, -100, -91, -79, -71, -59, -47, -45, -40, -33, -28, -21, -26, -38, -33, -23, -23, -16, -9, -4, -2, 0, 4, 14, 19, 19, 21, 23, 28, 38, 40, 38, 43, 43, 35, 14, 2, 9, 16, 16, 26, 35, 38, 40, 33]"
1714134009390889539,"[23, 31, 52, 67, 74, 62, 21, 9, 26, 28, 21, 23, 31, 40, 47, 40, 50, 275, 788, 1191, 867, 7, -261, 88, 95, -81, 2, 59, -4, 4, 47, 31, 16, 35, 40, 31, 33, 50, 69, 79, 86, 100, 129, 155, 182, 196, 189, 186, 186, 177, 167, 146, 91, 31, -2, -43, -100, -134, -134, -131, -122, -103, -93, -100, -110, -95, -71, -57, -47, -43, -47, -38, -16]"
1714134009951993491,"[-4, 0, 0, -2, 4, 14, 21, 26, 7, -16, -7, 11, 14, 19, 21, 9, 16, 35, 43, 43, 38, 31, 28, 21, 21, 35, 33, 23, 35, 50, 52, 50, 45, 45, 55, 71, 76, 71, 71, 76, 74, 79, 91, 100, 110, 119, 107, 76, 50, 33, 28, 31, 38, 52, 47, 23, 23, 184, 603, 1011, 860, 105, -313, -11, 117, -69, -40, 43, -9, -14, 33, 28, 11]"
1714134010513117783,"[26, 21, 7, 21, 52, 62, 64, 79, 98, 122, 150, 160, 160, 167, 170, 174, 184, 174, 150, 115, 59, 14, -19, -52, -71, -74, -76, -71, -57, -50, -50, -38, -23, -14, -7, 0, 7, 16, 21, 26, 7, -16, -4, 16, 7, 0, -2, -4, 7, 14, 14, 21, 28, 26, 31, 43, 43, 45, 52, 52, 59, 64, 67, 69, 69, 71, 81, 86, 83, 81, 83, 95, 122]"
1714134011074216644,"[134, 112, 86, 79, 67, 50, 47, 55, 45, 19, 14, 21, 79, 371, 865, 1064, 524, -210, -182, 143, 14, -105, 16, 33, -16, 11, 33, 21, 35, 47, 35, 31, 23, 0, 0, 35, 47, 38, 55, 93, 124, 153, 172, 179, 177, 174, 167, 143, 91, 26, -21, -45, -57, -64, -67, -74, -71, -55, -40, -31, -23, -26, -23, -4, 9, 16, 21, 19, 11, 7, 11, 23, 26]"
1714134011635346023,"[19, 21, 38, 45, 47, 43, 14, 2, 21, 35, 33, 33, 28, 31, 43, 50, 55, 55, 47, 50, 67, 71, 71, 69, 52, 26, 16, 23, 16, 2, 4, 16, 26, 33, 43, 40, 33, 40, 55, 59, 64, 62, 55, 59, 79, 95, 93, 76, 50, 38, 43, 50, 50, 45, 43, 43, 31, 14, 50, 325, 843, 1128, 639, -184, -270, 59, -31, -158, -45, -19, -71, -47, -21]"
1714134012196444884,"[-21, -4, 14, 19, 21, 33, 47, 69, 83, 81, 79, 103, 136, 167, 194, 210, 218, 201, 162, 136, 124, 91, 38, -7, -35, -57, -69, -71, -74, -69, -55, -43, -40, -33, -19, -11, -2, 7, 14, 14, 19, 26, 33, 38, 38, 40, 47, 50, 52, 62, 62, 45, 33, 40, 50, 57, 52, 52, 59, 59, 57, 59, 62, 64, 69, 71, 79, 81, 67, 52, 52, 52, 55]"
1714134012757574263,"[55, 52, 59, 62, 57, 50, 35, 23, 19, -7, -43, -47, -50, -67, -57, -43, -45, -28, 0, 9, 2, -14, -23, -19, -9, -2, 9, 19, 19, 16, 33, 196, 596, 968, 812, 100, -297, 2, 148, -35, -23, 59, 9, -2, 45, 45, 35, 52, 59, 69, 93, 103, 105, 117, 136, 160, 184, 206, 225, 242, 263, 285, 294, 289, 270, 244, 210, 165, 107, 57, 19, -9, -21]"
1714134013318678215,"[-23, -47, -91, -119, -122, -107, -91, -74, -67, -67, -59, -40, -23, -14, -4, -4, -2, 11, 23, 31, 33, 28, 31, 40, 50, 52, 50, 43, 40, 38, 31, 33, 38, 16, 4, 21, 33, 31, 28, 9, -2, 2, -2, -4, -2, -9, -7, 4, 11, 14, 14, 9, 14, 26, 31, 35, 35, 28, 33, 43, 50, 64, 79, 83, 71, 40, 19, 11, -9, -23, -2, 16, 19]"
1714134013879802507,"[19, 7, 79, 436, 980, 1147, 520, -232, -158, 143, 0, -83, 16, -14, -57, -2, 21, 11, 26, 33, 33, 52, 71, 81, 83, 86, 105, 131, 158, 179, 198, 215, 234, 254, 261, 258, 244, 215, 172, 119, 71, 35, 4, -16, -26, -23, -16, -11, -11, -9, -4, 4, 14, 16, 19, 19, 7, 0, 11, 16, 0, -23, -33, -19, -7, -9, -7, 0, 2, -2, -9, -11, -9]"
1714134014440901368,"[-7, -7, -2, 7, 7, 4, -4, -16, -19, -31, -62, -67, -50, -50, -50, -50, -52, -45, -33, -31, -26, -19, -19, -9, -2, 0, 4, 9, 14, 21, 26, 26, 28, 33, 40, 47, 47, 45, 59, 79, 93, 95, 76, 55, 55, 59, 57, 52, 40, 43, 52, 40, 83, 383, 860, 1064, 560, -198, -225, 119, 23, -103, 2, 16, -23, 19, 40, 26, 38, 57, 67, 81, 95]"
1714134015002030747,"[98, 103, 122, 148, 167, 184, 184, 167, 177, 215, 237, 237, 230, 218, 194, 162, 115, 55, 4, -28, -45, -47, -45, -45, -52, -64, -64, -45, -31, -28, -31, -35, -23, -4, -2, -16, -28, -33, -52, -62, -50, -43, -52, -50, -35, -26, -33, -57, -83, -76, -47, -38, -38, -33, -31, -23, -7, 2, 7, 11, 11, 16, 26, 33, 43, 45, 38, 43, 55, 62, 57, 35, 23]"
1714134015563129608,"[43, 71, 93, 103, 81, 45, 45, 64, 71, 69, 50, 31, 45, 64, 76, 213, 582, 956, 874, 210, -261, -11, 179, 0, -9, 98, 71, 50, 79, 67, 52, 71, 88, 91, 95, 110, 127, 146, 158, 155, 148, 170, 210, 239, 263, 278, 282, 282, 280, 263, 227, 162, 91, 38, 9, -9, -21, -31, -35, -31, -21, -23, -38, -38, -26, -19, -14, 0, 7, 7, 7, 0, -4]"
1714134016124228469,"[9, 14, 7, 7, 14, 19, 23, 0, -40, -50, -45, -57, -57, -52, -57, -50, -43, -38, -31, -31, -40, -52, -50, -33, -23, -23, -19, -9, -4, 2, 11, 0, -21, -19, -4, 2, 7, 11, 19, 23, 26, 31, 45, 62, 83, 88, 62, 47, 52, 52, 57, 64, 52, 38, 38, 38, 59, 285, 788, 1195, 889, 26, -258, 95, 107, -83, -7, 57, 9, 23, 55, 45, 47]"
1714134016685357852,"[67, 76, 81, 88, 88, 76, 83, 115, 136, 148, 177, 201, 210, 230, 256, 261, 251, 246, 237, 206, 150, 88, 38, -2, -45, -74, -71, -67, -71, -62, -45, -38, -31, -23, -21, -14, -2, 9, 14, 11, 11, 21, 31, 19, -7, -19, -14, -7, 0, 7, 7, 2, 0, -2, -11, -19, -23, -40, -43, -28, -16, -14, -16, -23, -23, -9, 0, 2, 4, 0, 0, 14, 26]"
1714134017246456713,"[31, 28, 21, 14, 19, 33, 40, 28, 0, -4, 16, 26, 28, 33, 28, 31, 33, 9, -4, 14, 35, 50, 57, 45, 31, 28, 28, 35, 50, 57, 62, 55, 43, 127, 469, 965, 1119, 515, -227, -160, 155, 21, -71, 33, 26, -7, 43, 64, 45, 50, 67, 76, 88, 103, 110, 122, 139, 158, 179, 201, 225, 242, 256, 282, 304, 299, 292, 273, 230, 194, 148, 86, 35]"
1714134017807586092,"[0, -23, -28, -26, -21, -23, -28, -23, -16, -23, -52, -76, -76, -62, -55, -52, -52, -50, -45, -40, -31, -19, -16, -19, -21, -38, -57, -71, -79, -76, -69, -64, -57, -50, -50, -45, -38, -33, -28, -21, -19, -16, -9, -4, 2, 11, 14, 11, 19, 31, 55, 79, 69, 45, 38, 38, 38, 43, 35, 31, 40, 47, 40, 52, 218, 637, 1028, 850, 98, -287, 28, 155, -33]"
1714134018368684953,"[-9, 71, 9, -16, 35, 43, 28, 47, 45, 31, 50, 76, 81, 93, 115, 129, 148, 160, 170, 201, 230, 244, 258, 261, 249, 227, 189, 131, 76, 31, -7, -31, -40, -43, -35, -28, -28, -28, -21, -11, -2, 2, 2, 4, 11, 21, 33, 35, 33, 23, 21, 33, 43, 43, 38, 35, 43, 47, 50, 52, 47, 40, 45, 57, 55, 38, 28, 19, -4, -11, 7, 9, -2]"
1714134018929783814,"[-2, 4, -2, -7, -14, -50, -74, -64, -64, -76, -67, -64, -67, -55, -38, -31, -28, -31, -26, -14, -7, 2, 16, 23, 35, 40, 26, 14, 16, 11, 14, 28, 40, 45, 40, 21, 91, 455, 1018, 1234, 601, -227, -198, 127, -11, -107, 4, -4, -43, 7, 31, 21, 28, 35, 43, 62, 79, 88, 95, 100, 98, 93, 117, 150, 165, 179, 210, 234, 244, 244, 230, 198, 150]"
1714134019490882675,"[95, 47, 9, -28, -52, -55, -47, -45, -52, -74, -74, -52, -38, -28, -23, -23, -21, -7, 4, 9, 11, 9, 11, 23, 33, 33, 31, 23, 11, 14, 19, 2, -14, -11, -4, -4, 2, -2, -16, -23, -31, -38, -28, -23, -26, -26, -23, -16, -7, -7, -7, -4, -11, -38, -43, -31, -26, -26, -16, -7, 0, 2, 2, -7, -16, -7, 7, 4, 9, 19, 16, 28, 55]"
1714134020052012058,"[71, 74, 59, 38, 35, 40, 14, 2, 21, 31, 31, 28, 33, 203, 666, 1124, 982, 167, -294, 14, 134, -76, -57, 16, -35, -31, 16, 11, 11, 38, 43, 50, 67, 79, 88, 100, 117, 141, 162, 174, 198, 230, 246, 258, 273, 263, 230, 191, 174, 143, 79, 23, -4, -35, -67, -76, -74, -71, -67, -62, -52, -35, -26, -21, -21, -11, 0, 9, 11, 0, -19, -14, 4]"
1714134020613110919,"[11, 11, 9, 4, 9, 16, 9, -9, -31, -55, -64, -55, -47, -59, -79, -81, -62, -47, -43, -38, -33, -35, -26, -11, -2, 2, -2, -4, 7, 19, 26, 28, 23, 23, 45, 74, 91, 83, 45, 4, -4, 11, 28, 26, 14, 9, 11, 16, 88, 381, 810, 951, 452, -215, -189, 139, 47, -69, 38, 62, 21, 47, 67, 57, 74, 93, 98, 100, 103, 119, 143, 158, 174]"
1714134021174209780,"[186, 198, 227, 261, 270, 273, 278, 278, 275, 270, 244, 184, 95, 16, -14, -26, -45, -55, -59, -62, -50, -35, -26, -21, -26, -23, -9, 4, 11, 16, 11, -2, -21, -14, 7, 11, 2, -7, 0, 16, 23, 19, 16, 21, 26, 28, 16, 7, 4, 7, 11, 23, 28, 23, 21, 14, 4, 4, -2, -21, -26, -19, 2, 26, 33, 11, -11, -16, -21, -33, -33, -21, -16]"
1714134021735308641,"[-19, -14, -16, 47, 409, 999, 1188, 498, -287, -196, 93, -71, -141, -19, -23, -57, -14, 2, -4, 16, 38, 38, 45, 47, 28, 33, 69, 81, 83, 110, 141, 167, 196, 215, 227, 237, 234, 220, 194, 143, 86, 40, 2, -19, -33, -43, -38, -31, -33, -28, -21, -16, -2, 7, 7, 14, 21, 23, 33, 28, 11, 11, 23, 28, 35, 40, 38, 38, 43, 47, 55, 55, 50]"
1714134022296407502,"[55, 52, 52, 52, 38, 26, 16, 0, 0, 14, 16, 11, 9, 0, -7, -14, -47, -79, -74, -69, -74, -59, -52, -57, -43, -11, 9, 7, -16, -31, -26, -19, -9, 2, 7, 4, 4, 0, 43, 323, 862, 1193, 747, -105, -249, 105, 50, -110, -14, 28, -28, -19, 4, -2, 4, 28, 43, 50, 62, 71, 81, 98, 115, 134, 158, 177, 203, 237, 266, 266, 251, 249, 254]"
1714134022857506363,"[239, 206, 155, 83, 19, -14, -23, -19, -35, -88, -110, -86, -55, -38, -35, -33, -23, -9, 2, 28, 43, 14, -4, 28, 59, 57, 57, 64, 57, 64, 79, 79, 74, 62, 59, 79, 79, 71, 86, 86, 59, 55, 67, 76, 59, 26, 26, 55, 59, 45, 31, 23, 33, 55, 59, 52, 50, 40, 23, 33, 57, 38, 4, 11, 7, -9, -4, 4, 2, -7, 2, 19, 9]"
1714134023418610315,"[-14, 83, 464, 944, 949, 222, -369, -177, 7, -172, -170, -43, -71, -110, -57, -21, -28, -26, -19, -19, 9, 43, 50, 50, 64, 93, 119, 136, 150, 170, 184, 210, 232, 213, 186, 189, 172, 119, 69, 31, 9, -4, -21, -23, -16, -7, -4, -4, -9, 2, 23, 23, 16, 23, 31, 33, 38, 38, 45, 50, 35, 40, 55, 40, 31, 23, 7, -16, -28, -19, -7, -9, -11]"
1714134023979734607,"[-11, -9, -9, -7, 4, 16, 7, -7, 0, 4, -23, -50, -45, -19, 4, -7, -38, -26, 16, 31, 19, 7, 0, -16, -45, -67, -52, -26, -47, -79, -67, -50, 59, 409, 817, 786, 167, -325, -167, 2, -148, -160, -52, -79, -115, -76, -57, -50, -23, -9, -28, -35, 7, 40, 38, 50, 52, 40, 76, 117, 112, 124, 160, 165, 162, 179, 182, 150, 100, 55, 26, -2, -11]"
1714134024540833468,"[-16, -38, -38, -19, -19, -19, -4, -14, -43, -23, 9, 16, 23, 26, 16, 4, 9, 35, 33, 14, 43, 64, 43, 57, 76, 45, 40, 69, 81, 76, 76, 81, 100, 98, 79, 81, 100, 100, 74, 91, 141, 134, 115, 136, 127, 86, 93, 107, 59, 35, 71, 86, 57, 26, 14, 19, 179, 601, 968, 774, 91, -242, 16, 91, -59, -9, 43, -11, 4, 50, 40, 23, 23]"
1714134025101932329,"[7, -26, 16, 103, 83, 31, 69, 107, 59, 45, 143, 208, 160, 150, 227, 213, 115, 115, 172, 122, 16, 9, 14, -59, -74, -59, -110, -64, 28, -28, -79, -9, 21, -23, -23, 57, 55, 23, 52, 0, -69, 21, 119, 91, 40, 4, 4, 52, 40, 16, 59, 50, -9, 38, 110, 83, 93, 122, 57, 43, 115, 119, 81, 62, 69, 136, 134, 52, 71, 266, 637, 1064, 1054]"
1714134025663031190,"[342, -198, 14, 148, -9, 38, 107, 26, -11, 45, 107, 124, 110, 100, 105, 98, 107, 153, 146, 119, 158, 208, 222, 249, 294, 299, 278, 280, 263, 210, 177, 153, 88, 23, -9, -50, -81, -86, -100, -107, -93, -88, -83, -76, -64, -45, -38, -40, -33, -9, 7, 11, 14, 11, 14, 35, 52, 47, 45, 47, 50, 45, 35, 45, 57, 52, 55, 76, 93, 79, 57, 50, 50]"
1714134026224130051,"[52, 64, 76, 79, 62, 35, 26, 95, 419, 992, 1296, 716, -201, -220, 191, 62, -107, 19, 52, 4, 28, 45, 28, 43, 67, 74, 88, 107, 105, 93, 91, 117, 150, 172, 194, 225, 261, 282, 289, 289, 275, 251, 215, 165, 110, 57, 14, -7, -11, -11, -9, -19, -45, -55, -33, -16, -11, -11, -9, -2, 4, 4, -2, -11, -23, -19, -9, -9, -7, -7, -16, -11, 4]"
1714134026785259434,"[4, 2, 4, 0, 0, 11, 23, 16, -9, -21, -2, -4, -21, -7, 19, 35, 40, 23, 9, 11, 9, 4, 7, -9, -16, 2, -2, -31, 98, 589, 1222, 1294, 421, -369, -129, 158, -67, -105, 26, -9, -33, 26, 28, 9, 16, 28, 40, 59, 74, 86, 98, 117, 146, 174, 191, 206, 234, 258, 275, 287, 287, 275, 251, 213, 165, 112, 67, 31, 2, -14, -11, -7, -11]"
1714134027346358295,"[-9, -2, -9, -19, -7, 0, -7, -7, 0, 7, 7, -7, -21, -23, -28, -47, -71, -76, -64, -57, -55, -43, -40, -55, -69, -62, -62, -79, -74, -62, -57, -57, -52, -43, -47, -62, -52, -38, -40, -33, -28, -31, -16, 14, 38, 35, 11, -4, 0, 9, 7, 4, 9, 16, 28, 31, 23, 182, 690, 1234, 1114, 210, -357, -28, 143, -83, -76, 16, -33, -40, 4, 7, 9]"
1714134027907457156,"[33, 38, 38, 55, 79, 91, 103, 95, 71, 71, 112, 146, 162, 191, 206, 208, 220, 222, 189, 146, 98, 35, -4, -23, -43, -71, -91, -81, -64, -55, -47, -47, -55, -40, -14, -7, -16, -14, 0, 9, 16, 23, 23, 14, 7, 0, 0, 11, 11, 2, 2, 4, 7, 16, 11, -11, -23, -31, -55, -55, -23, -14, -23, -35, -40, -33, -33, -40, -38, -26, -11, 2, -7]"
1714134028468556017,"[-45, 0, 359, 951, 1164, 476, -371, -266, 119, -28, -134, -19, -43, -86, -26, 0, -23, -33, -26, -2, 26, 45, 62, 74, 88, 115, 143, 177, 208, 225, 242, 266, 280, 275, 263, 232, 174, 110, 57, 19, -14, -45, -62, -57, -43, -35, -38, -40, -45, -52, -43, -21, -21, -26, -11, 4, 11, 19, 23, 19, 21, 33, 38, 43, 40, 23, -4, -21, -21, -23, -26, -23, -16]"
1714134029029654878,"[-11, -4, 0, 2, 0, -9, -19, -31, -62, -79, -52, -35, -50, -62, -59, -62, -59, -45, -33, -26, -19, -19, -33, -16, 280, 927, 1361, 855, -155, -328, 100, 40, -148, -33, 16, -45, -16, 28, 16, 9, 16, 16, 35, 57, 64, 74, 98, 119, 141, 170, 191, 213, 239, 256, 263, 270, 263, 244, 198, 122, 62, 28, -7, -28, -38, -45, -43, -38, -38, -23, -11, -14, -23]"
1714134029590784261,"[-21, -9, 0, 4, 7, 7, -2, -14, -11, -14, -19, -16, -11, -9, 0, 4, 2, 2, -7, -11, -9, -21, -31, -26, -23, -19, -7, 0, -2, -11, -14, -16, -21, -14, -2, 16, 43, 47, 26, 11, 14, 11, 11, 26, 40, 40, 35, 33, 33, 189, 702, 1291, 1205, 246, -395, -62, 136, -105, -95, 16, -26, -31, 19, 0, -21, 4, 23, 31, 50, 67, 71, 83, 112]"
1714134030151883122,"[143, 165, 182, 182, 184, 215, 244, 246, 244, 232, 213, 184, 139, 83, 38, 2, -19, -16, -14, -14, -23, -35, -45, -43, -23, -7, -9, -16, -7, 0, -7, -9, -19, -35, -28, -11, -7, -4, -4, -14, -9, 2, 4, 0, -35, -55, -28, -9, -9, -4, -4, -7, 2, 14, 4, -4, 0, 2, 11, 26, 35, 40, 35, 38, 47, 52, 67, 95, 112, 98, 79, 71, 71]"
1714134030712981983,"[74, 74, 74, 79, 88, 98, 88, 88, 304, 865, 1346, 1030, 59, -299, 91, 134, -74, 0, 47, -31, -16, 38, 38, 35, 50, 57, 62, 81, 100, 112, 124, 143, 162, 184, 210, 232, 232, 222, 234, 251, 239, 210, 184, 153, 91, 21, -23, -50, -67, -79, -93, -100, -98, -105, -107, -98, -93, -81, -67, -62, -59, -47, -40, -33, -23, -19, -16, -14, -9, -2, 2, 2, 7]"
1714134031274080844,"[14, 11, 19, 21, 14, 11, 21, 26, 26, 19, 0, 4, 19, 19, 21, 28, 31, 40, 45, 43, 47, 50, 52, 62, 67, 64, 64, 69, 64, 33, 16, 38, 64, 76, 76, 57, 21, 4, 16, 23, 26, 35, 43, 43, 38, 57, 292, 834, 1267, 922, -21, -306, 110, 127, -88, -2, 59, -7, 16, 69, 50, 38, 67, 76, 76, 95, 117, 117, 107, 110, 127, 150, 172]"
1714134031835200053,"[184, 196, 220, 242, 244, 222, 189, 141, 86, 31, -16, -55, -98, -124, -119, -119, -119, -103, -103, -110, -91, -83, -110, -117, -95, -88, -81, -76, -83, -76, -69, -71, -59, -35, -31, -38, -43, -33, -21, -19, -11, -9, -14, -9, 2, 11, 23, 21, 9, 14, 28, 33, 38, 43, 33, 35, 50, 57, 57, 47, 28, 31, 45, 55, 57, 55, 45, 50, 69, 91, 110, 103, 59]"
1714134032396304001,"[43, 62, 67, 57, 52, 55, 64, 71, 59, 91, 345, 850, 1138, 613, -263, -335, 64, -23, -191, -79, -43, -93, -64, -52, -74, -55, -38, -50, -47, -28, -7, 16, 38, 52, 71, 100, 122, 148, 186, 201, 196, 196, 201, 194, 167, 119, 59, 2, -38, -59, -88, -112, -117, -107, -103, -88, -76, -76, -67, -52, -40, -21, -11, -16, -14, -4, 7, 16, 19, 16, 19, 26, 33]"
1714134032957407949,"[31, 28, 35, 38, 31, 28, 19, -26, -59, -47, -43, -43, -33, -26, -26, -14, 2, 28, 45, 21, -4, 0, 14, 14, 11, 11, 23, 35, 35, 35, 93, 395, 915, 1112, 503, -287, -234, 136, 23, -98, 14, 19, -47, -14, 23, 9, 2, 14, 9, 7, 28, 45, 52, 76, 95, 110, 146, 174, 191, 213, 234, 239, 242, 237, 210, 153, 88, 35, -11, -52, -76, -91, -122]"
1714134033518481379,"[-153, -148, -136, -136, -143, -150, -136, -105, -93, -88, -81, -67, -52, -33, -23, -31, -31, -16, -2, 2, 4, 4, 0, 4, 16, 23, 26, 21, 19, 26, 35, 38, 28, 4, 0, 21, 31, 31, 35, 33, 28, 47, 81, 100, 86, 47, 35, 50, 55, 55, 64, 57, 50, 62, 64, 95, 366, 903, 1212, 714, -158, -254, 129, 50, -124, -38, -19, -64, -33, -14, -23, -14, -4]"
1714134034079585327,"[-7, -11, -14, 0, 23, 43, 62, 81, 93, 119, 155, 182, 196, 186, 158, 155, 160, 139, 98, 35, -31, -62, -74, -103, -124, -124, -119, -107, -88, -74, -67, -64, -57, -43, -28, -16, -7, -7, -9, -4, 4, 26, 40, 31, 16, 26, 38, 38, 40, 35, 33, 40, 50, 52, 47, 33, 19, 11, -4, -14, -4, -4, -4, 9, 21, 28, 28, 26, 31, 55, 91, 98, 64]"
1714134034640689275,"[40, 43, 47, 52, 55, 55, 52, 57, 59, 50, 143, 572, 1167, 1215, 359, -373, -124, 139, -88, -127, -2, -45, -74, -19, -9, -26, -7, 19, 21, 16, 16, 26, 35, 38, 52, 81, 105, 124, 155, 184, 189, 194, 203, 191, 172, 148, 91, 14, -38, -79, -129, -160, -150, -141, -139, -127, -110, -98, -93, -83, -74, -64, -52, -50, -45, -31, -23, -19, -7, -7, -9, 4, 11]"
1714134035201793223,"[7, 16, 16, 16, 33, 33, 2, -16, -21, -19, -2, 2, -2, 4, 11, 14, 21, 26, 31, 35, 35, 40, 57, 59, 67, 95, 98, 67, 55, 59, 52, 45, 57, 69, 74, 71, 62, 67, 242, 728, 1171, 898, -11, -390, 9, 115, -103, -47, 40, -16, -14, 40, 43, 38, 50, 59, 71, 79, 81, 93, 100, 107, 139, 177, 201, 220, 242, 246, 244, 239, 215, 170, 129]"
1714134035762902254,"[83, 28, -23, -74, -117, -153, -174, -165, -146, -141, -136, -131, -115, -95, -88, -83, -67, -62, -59, -40, -26, -19, -11, -11, -4, 7, 11, 19, 21, 2, -4, 11, 23, 26, 7, -21, -16, 7, 11, 14, 19, 19, 23, 35, 47, 67, 79, 57, 33, 38, 47, 43, 35, 38, 50, 57, 64, 59, 50, 206, 692, 1186, 989, 71, -381, 16, 150, -71, -23, 71, 7, -2, 50]"
1714134036324001115,"[62, 57, 69, 71, 79, 98, 117, 127, 124, 119, 134, 167, 196, 225, 249, 261, 270, 280, 275, 258, 213, 139, 62, 7, -28, -59, -79, -103, -139, -141, -115, -112, -127, -124, -127, -129, -110, -98, -98, -88, -79, -71, -55, -50, -52, -43, -33, -31, -26, -21, -21, -23, -38, -43, -28, -23, -26, -19, -9, -4, 4, 7, 7, 11, 16, 26, 28, 26, 31, 45, 45, 38, 45]"
1714134036885099980,"[52, 55, 55, 55, 62, 50, 28, 33, 45, 43, 40, 38, 33, 40, 45, 43, 55, 79, 93, 88, 45, -2, 2, 16, 14, 26, 38, 35, 33, 28, 43, 270, 831, 1349, 1102, 110, -342, 45, 119, -117, -55, 28, -43, -57, -23, -31, -33, -14, 0, 11, 26, 33, 35, 43, 55, 64, 76, 98, 119, 141, 170, 196, 201, 194, 189, 174, 143, 95, 38, -16, -52, -67, -69]"
1714134037446209015,"[-67, -71, -88, -98, -81, -57, -50, -52, -57, -67, -62, -45, -40, -67, -91, -79, -52, -45, -38, -28, -26, -28, -16, 0, 7, 7, 7, 9, 19, 28, 35, 40, 31, 26, 26, 21, 26, 33, 23, 23, 40, 50, 55, 52, 43, 47, 64, 69, 74, 74, 62, 64, 79, 86, 86, 81, 69, 76, 83, 86, 91, 88, 76, 81, 95, 91, 74, 50, 31, 33, 43, 47, 59]"
1714134038007312963,"[76, 76, 59, 45, 33, -2, -50, -62, -52, -47, -40, -50, -76, 40, 515, 1109, 1140, 287, -433, -177, 79, -148, -170, -40, -86, -129, -83, -64, -62, -40, -31, -28, -9, 16, 40, 52, 62, 83, 119, 148, 170, 194, 218, 234, 249, 261, 254, 237, 208, 160, 103, 57, 16, -19, -38, -38, -38, -50, -64, -55, -40, -38, -28, -16, -16, -14, 0, 4, 7, 16, 9, -16, -19]"
1714134038568416911,"[0, 9, 4, 2, 16, 21, 19, 26, 26, 4, -9, -2, 9, 16, 23, 16, 4, 0, 2, 11, 14, 14, 11, 9, 9, 14, 11, 9, 16, 23, 23, 26, 19, 7, 7, 0, -14, -7, -2, -7, 0, 9, 4, 2, 9, 11, 14, 19, 11, -2, -2, 11, 38, 57, 52, 31, 19, 21, 26, 28, 35, 45, 31, 2, -2, 55, 316, 800, 1102, 671, -162, -301, 100]"
1714134039129525942,"[76, -100, 2, 55, -4, 16, 57, 40, 35, 62, 71, 64, 59, 62, 88, 117, 131, 148, 172, 196, 230, 266, 285, 292, 292, 294, 289, 258, 208, 139, 69, 21, -2, -21, -38, -52, -52, -43, -33, -38, -52, -55, -45, -31, -19, -9, -4, -7, -4, 11, 9, -2, 4, 9, -2, -16, -28, -28, -26, -35, -45, -43, -47, -52, -50, -59, -64, -43, -26, -26, -21, -31, -47]"
1714134039690624803,"[-40, -19, -11, -16, -21, -14, 0, 9, 14, -2, -28, -23, 0, 11, 14, 11, 7, 16, 31, 40, 43, 38, 38, 52, 59, 62, 69, 62, 59, 88, 107, 83, 59, 47, 35, 40, 62, 67, 59, 57, 64, 69, 95, 318, 826, 1246, 944, 43, -306, 52, 86, -117, -45, 26, -23, -7, 28, 16, 19, 43, 57, 69, 74, 67, 76, 107, 131, 141, 155, 184, 210, 225, 239]"
1714134040251723668,"[261, 270, 266, 254, 237, 206, 139, 40, -33, -74, -100, -119, -134, -139, -134, -127, -115, -103, -98, -91, -81, -83, -91, -81, -67, -64, -57, -50, -40, -31, -26, -19, -11, -9, -4, 4, 7, 9, 16, 19, 9, -11, -28, -16, -2, -4, 0, 11, 11, 19, 28, 28, 31, 33, 23, 26, 38, 40, 40, 47, 50, 52, 59, 59, 62, 64, 67, 74, 76, 74, 76, 76, 79]"
1714134040812822529,"[86, 86, 83, 86, 88, 91, 93, 91, 91, 98, 98, 88, 69, 38, 23, 31, 31, 31, 47, 57, 52, 45, 93, 402, 989, 1351, 848, -115, -268, 143, 74, -107, 4, 43, -38, -33, 11, 11, 2, 9, 19, 38, 52, 50, 38, 45, 67, 95, 122, 148, 170, 189, 210, 225, 222, 213, 194, 165, 134, 81, 19, -35, -81, -110, -115, -115, -112, -107, -110, -110, -91, -74, -64]"
1714134041373921390,"[-62, -64, -62, -57, -62, -57, -55, -81, -88, -64, -50, -43, -35, -40, -33, -19, -9, 0, 0, -11, -9, 9, 14, 19, 23, 9, -14, -28, -14, 0, -9, -14, 7, 23, 26, 23, 9, 0, 16, 31, 33, 35, 35, 33, 40, 50, 57, 59, 50, 47, 59, 69, 76, 100, 110, 95, 69, 59, 69, 74, 67, 64, 74, 86, 88, 81, 162, 498, 975, 1090, 462, -282, -186]"
1714134041935020251,"[167, 28, -76, 50, 50, -2, 33, 55, 50, 64, 57, 33, 50, 83, 98, 107, 122, 136, 143, 146, 167, 208, 230, 244, 266, 268, 239, 206, 165, 107, 43, -16, -59, -95, -119, -141, -153, -148, -146, -155, -148, -136, -134, -124, -105, -98, -95, -81, -67, -59, -52, -43, -35, -28, -21, -11, -4, -7, -9, -19, -26, -16, -4, -7, -4, 9, 14, 11, 19, 28, 31, 33, 38]"
1714134042496119112,"[47, 50, 45, 50, 64, 79, 93, 76, 35, 26, 23, -14, -31, -7, 2, 4, 16, 7, -9, 107, 546, 1076, 1049, 218, -407, -100, 162, -50, -67, 55, 14, -11, 45, 62, 47, 62, 79, 86, 95, 117, 131, 141, 153, 174, 201, 230, 258, 285, 306, 318, 316, 309, 301, 275, 225, 158, 91, 35, -4, -33, -55, -59, -47, -38, -38, -38, -33, -23, -14, -9, -2, 2, 4]"
1714134043057248495,"[11, 26, 33, 14, -38, -71, -59, -43, -45, -59, -74, -71, -55, -45, -47, -59, -71, -81, -81, -69, -59, -59, -64, -57, -43, -31, -26, -26, -31, -23, -7, 0, 7, 11, 7, 9, 26, 33, 38, 38, 26, 11, 9, 26, 52, 69, 69, 59, 47, 43, 50, 47, 40, 47, 64, 71, 76, 69, 153, 568, 1169, 1318, 572, -263, -146, 182, 2, -74, 47, 7, -59, -2, 21]"
1714134043618347356,"[-7, -2, 11, 11, 28, 55, 71, 74, 64, 76, 115, 146, 174, 206, 225, 242, 268, 282, 280, 266, 237, 189, 124, 71, 35, 0, -31, -38, -28, -23, -23, -14, -21, -35, -23, 0, 2, 2, 9, 11, 16, 31, 33, 28, 33, 40, 40, 50, 52, 45, 47, 52, 52, 59, 57, 35, 26, 33, 33, 35, 40, 23, -14, -28, -28, -55, -71, -64, -69, -76, -62, -52, -57]"
1714134044179446217,"[-55, -40, -35, -35, -23, -16, -16, -14, -11, -4, -4, -28, -35, -14, -7, -7, 0, 2, 7, 26, 50, 71, 69, 33, 9, 16, 26, 33, 38, 35, 40, 50, 45, 79, 364, 934, 1342, 922, -52, -292, 119, 91, -105, 0, 50, -14, 9, 50, 40, 45, 62, 67, 71, 79, 59, 35, 43, 71, 91, 115, 153, 182, 203, 230, 251, 263, 270, 268, 244, 206, 153, 91, 40]"
1714134044740545078,"[7, -21, -43, -45, -33, -23, -26, -28, -23, -11, -2, 4, 14, 16, 7, -2, 4, 19, 21, 9, -9, -9, 9, 14, 9, 9, 11, 16, 28, 33, 33, 28, 23, 33, 38, 23, 14, 14, 11, 16, 28, 35, 31, 26, 19, 7, -14, -50, -69, -69, -64, -55, -43, -35, -33, -40, -40, -23, -14, -11, -9, -9, -9, 0, 9, 23, 40, 52, 52, 43, 28, 28, 31]"
1714134045301643939,"[23, 26, 43, 52, 52, 38, 35, 251, 793, 1265, 1004, 40, -393, 11, 105, -124, -59, 21, -45, -33, 23, 21, 19, 33, 38, 47, 71, 86, 93, 103, 117, 141, 170, 198, 220, 239, 258, 273, 270, 258, 227, 186, 158, 115, 55, 4, -31, -62, -79, -76, -69, -64, -59, -55, -47, -38, -26, -14, -11, -11, -7, 2, 14, 19, 19, 21, 26, 28, 35, 33, 21, 19, 26]"
1714134045862742800,"[31, 33, 38, 35, 31, 26, 16, 14, 4, -14, -16, -9, -4, -2, 2, -4, -19, -28, -31, -31, -33, -33, -26, -26, -21, -14, -14, -16, -21, -31, -28, -21, -33, -52, -64, -59, -45, -38, -28, -2, 26, 23, 0, -9, -7, 2, 7, 11, 21, 26, 26, 28, 64, 333, 889, 1265, 831, -103, -292, 119, 71, -136, -35, 26, -31, -11, 28, 19, 26, 55, 57, 57, 71]"
1714134046423841661,"[88, 100, 119, 139, 155, 167, 167, 189, 237, 263, 263, 270, 282, 273, 251, 213, 155, 83, 28, -4, -38, -69, -76, -69, -62, -69, -91, -91, -74, -74, -69, -52, -55, -57, -50, -45, -43, -26, -11, -14, -16, -19, -28, -31, -35, -40, -45, -45, -38, -31, -23, -31, -52, -62, -43, -28, -21, -19, -23, -21, -7, 7, 11, 11, 9, 9, 23, 33, 38, 40, 33, 33, 47]"
1714134046984940526,"[55, 55, 50, 23, 9, 31, 45, 52, 69, 79, 64, 31, 16, 26, 26, 14, 21, 38, 26, -4, -16, 23, 289, 838, 1219, 800, -136, -347, 88, 79, -117, -14, 35, -33, -4, 43, 33, 40, 57, 57, 64, 86, 95, 91, 91, 110, 139, 165, 201, 234, 249, 266, 289, 304, 301, 287, 256, 206, 148, 91, 40, 0, -38, -52, -47, -43, -40, -40, -40, -35, -31, -38, -33]"
1714134047546039387,"[-26, -38, -59, -50, -26, -26, -38, -38, -35, -38, -50, -91, -141, -141, -115, -112, -112, -100, -93, -93, -88, -76, -59, -52, -50, -43, -38, -31, -19, -11, -11, -2, 2, 0, -2, 2, 28, 43, 19, 2, 16, 16, 9, 21, 33, 35, 47, 50, 43, 158, 570, 1066, 1028, 237, -369, -81, 194, 2, -28, 86, 57, 33, 79, 88, 79, 83, 86, 81, 95, 117, 127, 134, 158]"
1714134048107138248,"[179, 201, 232, 254, 254, 275, 306, 311, 304, 278, 232, 186, 127, 45, -14, -50, -76, -83, -81, -81, -81, -76, -64, -47, -47, -64, -67, -50, -35, -23, -14, -7, 2, 7, 14, 26, 31, 31, 35, 40, 43, 52, 55, 45, 43, 43, 33, 23, 28, 31, 19, 19, 33, 43, 35, 31, 16, -2, -16, -19, -16, -21, -26, -16, -4, -4, -4, -2, -2, -4, -4, -11, -28]"
1714134048668237109,"[-38, -33, -23, -14, -2, 4, -11, -35, -26, 110, 546, 1109, 1140, 306, -390, -129, 127, -105, -139, -4, -31, -50, 7, 14, -7, 14, 40, 50, 59, 76, 83, 91, 117, 146, 167, 191, 213, 242, 275, 301, 316, 311, 297, 282, 254, 194, 129, 64, 4, -31, -33, -35, -40, -38, -40, -35, -21, -14, -9, -7, -14, -31, -47, -31, -11, -16, -21, -7, 9, 14, 19, 19, 14]"
1714134049229335970,"[21, 33, 38, 35, 28, 28, 31, 19, 11, 7, -14, -23, -2, 11, 11, 16, 14, 9, 21, 21, 11, 11, 11, 11, 21, 26, 26, 28, 26, 9, 4, 9, -4, -19, -16, -11, -7, 2, 2, -4, -16, -11, 2, 9, 7, 7, 16, 33, 57, 71, 52, 23, 21, 14, -11, -16, 0, 4, 4, 7, 14, 158, 618, 1191, 1222, 373, -349, -98, 158, -71, -103, 4, -40]"
1714134049790434831,"[-57, -7, -4, -4, 16, 28, 26, 23, 28, 45, 62, 83, 107, 124, 150, 182, 208, 234, 258, 273, 285, 285, 266, 242, 201, 131, 74, 33, -2, -26, -40, -50, -45, -38, -35, -28, -21, -14, 0, 7, 2, 7, 14, 14, 23, 31, 14, -14, -26, -9, 4, 7, 7, 9, 11, 21, 23, 26, 31, 31, 31, 33, 26, 11, 7, 2, -2, 0, 11, 16, 9, 7, 11]"
1714134050351538783,"[21, 21, 4, -11, -33, -52, -47, -33, -28, -33, -35, -28, -19, -11, -9, -7, -11, -7, 7, 19, 16, 0, -4, 14, 23, 21, 23, 28, 23, 33, 47, 52, 50, 45, 47, 59, 64, 69, 71, 55, 28, 26, 45, 67, 83, 86, 69, 55, 52, 62, 62, 50, 50, 57, 50, 47, 50, 158, 577, 1152, 1248, 472, -299, -117, 177, -23, -76, 55, 23, -23, 28, 50, 38]"
1714134050912663075,"[57, 69, 57, 69, 98, 110, 117, 129, 141, 162, 189, 215, 222, 203, 203, 239, 261, 256, 246, 222, 179, 129, 74, 23, -11, -40, -64, -67, -55, -47, -47, -50, -64, -88, -93, -81, -79, -79, -71, -62, -47, -33, -33, -45, -64, -81, -81, -79, -81, -83, -79, -67, -59, -57, -52, -52, -52, -43, -33, -28, -23, -19, -21, -14, 0, 2, -2, 4, 9, 16, 26, 26, 21]"
1714134051473746679,"[28, 35, 38, 35, 16, 11, 26, 28, 31, 38, 19, -2, 9, 28, 31, 35, 33, 33, 47, 50, 50, 59, 59, 57, 62, 43, 16, 21, 33, 55, 83, 74, 45, 43, 45, 31, 23, 28, 35, 40, 45, 52, 146, 503, 1018, 1133, 457, -289, -160, 184, 33, -64, 57, 59, 19, 57, 76, 62, 69, 93, 98, 93, 93, 103, 115, 134, 153, 160, 162, 184, 220, 239, 249]"
1714134052034850627,"[256, 251, 237, 230, 208, 153, 76, -2, -76, -122, -131, -141, -150, -153, -143, -131, -117, -127, -150, -150, -129, -112, -98, -83, -79, -74, -71, -71, -62, -47, -40, -38, -23, -7, 2, 4, 7, 4, 9, 23, 31, 31, 28, 26, 35, 47, 52, 52, 47, 50, 57, 67, 74, 74, 69, 62, 69, 83, 79, 55, 43, 55, 64, 67, 76, 79, 64, 64, 79, 86, 88, 86, 74]"
1714134052595959658,"[76, 88, 93, 100, 107, 95, 81, 76, 62, 57, 47, 21, 19, 40, 52, 55, 57, 64, 266, 783, 1255, 992, 31, -393, 11, 105, -124, -59, 26, -45, -38, 4, -11, -19, -11, -23, -9, 11, 23, 35, 45, 57, 83, 115, 141, 170, 194, 215, 244, 261, 251, 242, 230, 196, 143, 86, 28, -21, -57, -79, -81, -74, -69, -64, -64, -59, -45, -33, -28, -28, -26, -19, -7]"
1714134053157058519,"[2, 14, 14, -14, -35, -14, 9, 7, 0, -4, -7, 0, 11, 4, -19, -28, -14, 0, 4, 4, 7, 11, 14, 21, 33, 35, 33, 38, 43, 45, 55, 57, 55, 57, 62, 67, 71, 69, 69, 79, 69, 43, 45, 59, 57, 55, 59, 69, 69, 67, 71, 79, 71, 79, 91, 79, 71, 91, 110, 122, 124, 100, 79, 76, 76, 81, 83, 79, 71, 47, 23, 55, 275]"
1714134053718157384,"[766, 1224, 999, 59, -400, -33, 47, -177, -107, -19, -93, -105, -59, -64, -79, -59, -43, -40, -28, -2, 14, 23, 40, 64, 91, 122, 153, 174, 201, 230, 254, 256, 237, 215, 196, 150, 88, 33, -11, -47, -69, -79, -74, -64, -59, -57, -55, -43, -28, -19, -14, -14, -14, -4, 9, 19, 21, 19, 19, 26, 33, 23, -2, -16, -19, -14, 0, 11, 9, 7, 9, 16, 28]"
1714134054279256245,"[35, 33, 28, 33, 43, 47, 55, 55, 28, 9, 26, 43, 43, 43, 38, 33, 50, 59, 62, 64, 57, 52, 62, 55, 40, 45, 45, 40, 55, 69, 69, 64, 59, 64, 74, 79, 79, 74, 76, 100, 127, 119, 98, 76, 64, 69, 81, 86, 88, 83, 71, 71, 119, 390, 910, 1236, 776, -143, -318, 98, 59, -136, -38, 19, -31, -4, 28, 9, 9, 28, 26, 31, 47]"
1714134054840355106,"[50, 57, 81, 105, 124, 141, 150, 160, 186, 210, 215, 210, 196, 182, 160, 122, 76, 14, -52, -93, -112, -127, -134, -131, -131, -127, -105, -88, -83, -81, -69, -64, -55, -35, -28, -33, -26, -14, -9, -2, 7, 7, 7, 14, 23, 26, 7, -14, -7, 4, 9, 14, 14, 16, 23, 26, 31, 35, 35, 40, 45, 47, 52, 57, 59, 62, 64, 64, 67, 71, 71, 71, 79]"
1714134055401474315,"[76, 76, 81, 81, 79, 62, 45, 52, 55, 28, 23, 40, 38, 38, 50, 50, 52, 59, 55, 59, 81, 98, 107, 95, 64, 57, 64, 64, 67, 71, 71, 74, 71, 71, 201, 625, 1150, 1157, 335, -378, -134, 141, -76, -115, 14, -16, -40, 11, 16, 4, 26, 43, 52, 62, 64, 59, 67, 91, 112, 129, 150, 174, 198, 227, 249, 251, 244, 230, 208, 179, 131, 67, 2]"
1714134055962583346,"[-55, -93, -112, -119, -124, -139, -155, -155, -134, -119, -112, -107, -100, -91, -76, -59, -50, -52, -50, -38, -28, -14, -7, -14, -14, 0, 4, 9, 2, -21, -33, -33, -47, -43, -28, -31, -33, -21, -7, 2, 7, 0, 4, 21, 33, 38, 35, 26, 31, 50, 59, 62, 59, 55, 57, 67, 71, 76, 74, 62, 55, 50, 55, 67, 69, 76, 95, 91, 64, 62, 67, 57, 57]"
1714134056523651691,"[69, 79, 83, 79, 91, 256, 690, 1112, 937, 95, -393, -33, 172, -40, -33, 67, 14, 2, 57, 50, 23, 35, 50, 43, 31, 40, 62, 74, 83, 112, 136, 150, 177, 206, 227, 251, 278, 287, 280, 254, 206, 146, 69, -9, -67, -105, -131, -136, -131, -127, -127, -141, -148, -129, -107, -103, -100, -91, -79, -67, -52, -40, -35, -31, -21, -9, 2, 7, 9, 14, 16, 23, 31]"
1714134057084781072,"[31, 31, 31, 26, 31, 35, 14, -11, 0, 11, -2, -11, -4, 0, 4, 9, -2, -26, -26, -7, -2, 0, 11, 23, 19, 23, 31, 38, 64, 93, 83, 59, 50, 47, 50, 55, 55, 64, 71, 69, 64, 79, 280, 798, 1294, 1068, 105, -357, 38, 150, -88, -40, 57, -4, -7, 47, 47, 38, 57, 67, 71, 88, 98, 103, 119, 134, 153, 182, 206, 225, 251, 280, 301]"
1714134057645879933,"[318, 316, 285, 261, 234, 182, 117, 59, 4, -43, -88, -115, -117, -110, -115, -129, -134, -115, -95, -93, -95, -95, -100, -98, -93, -93, -93, -88, -79, -64, -62, -64, -71, -76, -71, -55, -33, -26, -43, -43, -26, -21, -23, -19, -19, -19, -9, 4, 14, 11, 9, 9, 16, 23, 28, 35, 38, 38, 43, 50, 52, 52, 38, 33, 52, 55, 31, 23, 38, 59, 81, 83, 64]"
1714134058206978794,"[43, 28, 11, -2, 7, 23, 14, 2, 9, 55, 318, 865, 1253, 838, -107, -347, 74, 69, -141, -50, 14, -38, -19, 9, -4, 0, 19, 23, 33, 55, 69, 71, 83, 115, 143, 158, 174, 206, 244, 270, 275, 289, 294, 278, 270, 244, 186, 117, 50, 0, -26, -35, -38, -43, -57, -57, -45, -59, -62, -40, -43, -45, -19, -9, -26, -23, -16, -45, -76, -69, -52, -55, -55]"
1714134058768077655,"[-38, -38, -59, -59, -50, -76, -93, -69, -64, -83, -88, -86, -79, -79, -71, -52, -59, -76, -62, -43, -33, -31, -21, -2, 21, 21, -7, -23, -2, 7, -7, -2, 21, 28, 16, 2, 33, 285, 822, 1210, 822, -93, -347, 71, 105, -95, -14, 55, -16, -21, 19, 26, 31, 45, 50, 62, 86, 95, 107, 127, 122, 117, 139, 174, 215, 237, 261, 292, 304, 301, 301, 270, 203]"
1714134059329176516,"[141, 83, 19, -28, -50, -59, -76, -95, -91, -71, -64, -55, -55, -76, -74, -45, -50, -79, -59, -16, -19, 4, 91, 88, 38, 47, 45, 26, 33, 38, 9, 4, 38, 55, 47, 40, 43, 45, 31, 16, 26, 40, 28, 33, 67, 79, 52, 16, 0, 16, 38, 40, 21, -19, -31, -19, -26, -33, 40, 390, 963, 1100, 333, -421, -230, 67, -112, -146, -21, -52, -93, -62, -57]"
1714134059890275377,"[-57, -26, 0, -2, -16, -21, 7, 35, 59, 88, 105, 115, 160, 208, 230, 246, 256, 258, 275, 261, 208, 148, 79, 19, -4, -33, -74, -76, -71, -79, -81, -76, -64, -59, -67, -55, -28, -16, -9, -11, -19, 4, 23, 14, 26, 38, 11, -11, -4, 7, 14, 19, 14, 2, 14, 43, 40, 19, 35, 71, 76, 64, 40, 23, 31, 47, 43, 33, 52, 55, 52, 71, 57]"
1714134060451374242,"[47, 76, 81, 67, 69, 79, 62, 40, 33, 43, 91, 122, 79, 43, 52, 47, 33, 45, 43, 19, 26, 28, 4, 45, 333, 910, 1337, 891, -124, -376, 28, -2, -194, -98, -57, -107, -79, -47, -74, -103, -71, -35, -31, -14, -7, -9, 43, 95, 88, 59, 83, 150, 208, 215, 162, 191, 266, 220, 208, 220, 81, -16, 2, -14, -26, -9, -79, -124, -59, -38, -45, -2, -7]"
1714134061012473103,"[-47, -9, 16, -21, 2, 38, 16, 11, 23, 35, 52, 9, -62, -35, 19, 11, -2, -7, 2, 23, 26, 14, 26, 45, 40, 19, 16, 40, 52, 38, 38, 40, 9, -11, 16, 50, 35, 4, 21, 50, 43, 50, 71, 59, 31, 23, 43, 40, 28, 52, 55, 40, 71, 93, 57, 45, 62, 23, 21, 67, 67, 59, 52, 26, 35, 38, 4, 14, 40, 11, -2, 26, 26]"
1714134061573571964,"[55, 67, 0, -26, 4, 7, -16, -23, -28, -14, 0, -19, 62, 481, 1090, 1267, 568, -275, -208, 112, -59, -139, -19, -50, -100, -62, -43, -33, -21, -19, 14, 26, 11, 47, 76, 57, 74, 112, 115, 124, 170, 215, 230, 234, 261, 278, 263, 258, 249, 158, 76, 67, 38, -9, -16, -16, -33, -23, 7, 0, -26, -4, 35, 33, 16, 26, 40, 19, 4, 21, 33, 40, 50]"
1714134062134670825,"[35, 19, 43, 69, 55, 35, 43, 50, 55, 81, 64, -2, -4, 31, 33, 11, -14, -9, -2, -4, 2, 14, 9, -4, -4, 4, 2, 7, -4, -47, -23, 26, 0, -33, -16, -19, -21, -23, -33, -4, -2, -26, -14, 4, 4, 11, 16, 16, 23, 31, 45, 50, 21, 16, 50, 57, 52, 55, 57, 50, 43, 35, 40, 64, 95, 112, 95, 71, 71, 71, 64, 79, 76]"
1714134062695795121,"[50, 76, 100, 67, 141, 532, 1116, 1325, 637, -242, -201, 136, -4, -107, -14, -33, -62, -19, -16, -35, -14, 9, 7, 16, 50, 71, 62, 64, 115, 141, 146, 184, 213, 213, 246, 289, 297, 287, 270, 268, 266, 201, 105, 67, 50, 9, -23, -16, -23, -62, -64, -35, -40, -59, -35, -26, -45, -14, -2, -45, -40, -21, -50, -55, -33, -35, -38, -33, -23, -21, -21, -7, -9]"
1714134063256899065,"[-35, -47, -45, -38, -38, -55, -62, -59, -62, -55, -52, -64, -55, -21, -7, -21, -26, -9, 4, 21, 35, 21, 11, 31, 43, 43, 52, 55, 45, 55, 71, 67, 64, 76, 76, 57, 76, 110, 93, 74, 83, 71, 57, 83, 110, 88, 62, 81, 100, 93, 93, 110, 110, 83, 79, 112, 150, 155, 115, 86, 95, 110, 100, 86, 93, 91, 59, 43, 55, 167, 570, 1107, 1164]"
1714134063817997930,"[388, -335, -141, 117, -93, -124, 7, -35, -100, -79, -74, -81, -62, -40, -43, -45, -26, -2, 23, 47, 59, 71, 95, 115, 155, 203, 220, 222, 237, 256, 256, 237, 191, 122, 64, 35, 2, -43, -74, -81, -69, -50, -45, -45, -38, -43, -33, -2, -2, -7, 9, 16, 11, 21, 35, 40, 40, 35, 9, 0, 14, 11, 0, 4, 0, -2, 19, 14, -2, 14, 31, 23, 33]"
1714134064379096791,"[50, 40, 21, 38, 67, 59, 38, 55, 76, 67, 62, 59, 35, 23, 45, 62, 67, 55, 43, 57, 64, 57, 59, 47, 38, 57, 62, 50, 57, 71, 55, 47, 76, 76, 67, 76, 67, 52, 62, 62, 52, 76, 100, 88, 64, 47, 33, 21, 21, 14, -16, -43, -45, -45, 0, 297, 834, 1131, 627, -249, -342, 47, -26, -177, -67, -40, -86, -43, -21, -40, -19, 4, 19]"
1714134064940165134,"[40, 50, 59, 69, 83, 100, 117, 143, 160, 167, 196, 234, 249, 246, 237, 234, 230, 196, 143, 91, 33, -9, -38, -64, -69, -67, -76, -74, -52, -33, -31, -35, -28, -9, -2, -11, 4, 19, 4, 11, 47, 59, 38, 14, 11, 0, -11, -4, 4, 2, 0, 7, 23, 23, 19, 31, 28, 23, 40, 57, 59, 45, 40, 59, 79, 88, 76, 50, 59, 76, 67, 83, 103]"
1714134065501263995,"[81, 74, 88, 86, 81, 76, 50, 52, 52, 33, 38, 50, 33, 11, 21, 52, 71, 69, 64, 177, 560, 1016, 999, 297, -325, -141, 155, 7, -64, 47, 35, -4, 33, 55, 45, 33, 9, -14, -4, 19, 21, 26, 45, 81, 115, 119, 141, 189, 213, 239, 278, 297, 294, 268, 237, 210, 131, 21, -16, -31, -76, -110, -95, -79, -86, -88, -67, -50, -47, -55, -69, -67, -50]"
1714134066062362856,"[-38, -21, -9, -11, -7, 4, 16, 28, 28, -2, -19, -4, 11, 23, 19, 9, 7, 16, 31, 40, 45, 35, 26, 40, 62, 55, 40, 55, 55, 23, 9, 7, 4, 9, 26, 47, 69, 62, 35, 38, 43, 28, 33, 52, 55, 52, 59, 59, 100, 373, 901, 1229, 762, -141, -278, 150, 105, -81, 33, 81, -9, 0, 47, 28, 23, 57, 71, 79, 91, 103, 110, 129, 153]"
1714134066623461717,"[162, 172, 208, 244, 261, 282, 297, 285, 280, 289, 273, 222, 155, 95, 43, -4, -43, -69, -86, -93, -100, -100, -115, -134, -127, -105, -100, -110, -107, -103, -117, -112, -83, -74, -74, -71, -67, -57, -43, -38, -40, -38, -31, -26, -23, -14, -9, -14, -9, 2, 2, -9, -14, -14, -7, 2, 11, 9, 14, 23, 26, 31, 40, 43, 43, 43, 43, 52, 64, 64, 52, 45, 59]"
1714134067184560582,"[95, 117, 110, 71, 31, 31, 47, 47, 50, 47, 33, 38, 43, 38, 167, 611, 1164, 1181, 347, -347, -110, 105, -107, -103, 21, -26, -52, -2, 7, 0, 21, 43, 50, 52, 69, 91, 100, 117, 139, 143, 155, 191, 213, 222, 249, 266, 266, 275, 285, 266, 206, 134, 81, 38, 4, -14, -28, -47, -47, -21, -9, -19, -23, -14, 2, 7, 9, 16, 16, 11, 23, 26, 28]"
1714134067745659443,"[43, 33, 9, 19, 38, 33, 31, 23, -14, -35, -19, -7, -11, -19, -16, -4, 4, 7, -14, -50, -52, -45, -59, -55, -40, -47, -52, -35, -23, -28, -28, -19, -16, -38, -40, -19, -11, -23, -23, -2, 21, 43, 50, 35, 11, 11, 23, 21, 14, 21, 33, 38, 43, 35, 79, 390, 965, 1303, 793, -136, -261, 129, 47, -112, 7, 28, -40, -7, 26, 14, 26, 43, 43]"
1714134068306758304,"[33, 21, 31, 57, 69, 83, 110, 134, 155, 177, 189, 203, 227, 244, 251, 254, 239, 206, 153, 86, 35, 2, -31, -50, -62, -79, -76, -57, -52, -45, -33, -28, -23, -9, -4, -2, 4, 14, 19, 14, 19, 33, 38, 38, 43, 40, 40, 52, 55, 47, 47, 52, 52, 59, 67, 59, 50, 40, 43, 57, 62, 55, 57, 57, 57, 67, 40, -7, -14, 0, 2, 9, 21]"
1714134068867857165,"[11, 4, 16, 16, 4, 2, -14, -50, -59, -40, -35, -38, -33, -31, -31, -33, -38, -38, -35, -31, -9, 26, 40, 23, -7, -11, 7, 11, 14, 33, 28, 16, 28, 43, 174, 627, 1176, 1157, 311, -330, -47, 165, -74, -81, 50, 2, -21, 23, 0, -11, 28, 43, 43, 59, 67, 71, 100, 124, 131, 129, 122, 143, 179, 213, 244, 261, 254, 254, 266, 251, 215, 160, 88]"
1714134069428956026,"[33, 11, -2, -16, -28, -47, -55, -55, -43, -31, -47, -67, -52, -31, -21, -9, -9, -19, -4, 16, 23, 23, 21, 23, 31, 35, 40, 50, 45, 33, 40, 45, 28, 23, 28, 23, 26, 31, 26, 7, 0, 0, -9, -14, -14, -23, -33, -28, -19, -11, -2, -2, -26, -45, -33, -21, -19, -9, -11, -16, 2, 19, 16, 14, 23, 21, 21, 40, 45, 52, 69, 62, 38]"
1714134069990054887,"[28, 28, 26, 28, 33, 38, 50, 43, 19, 14, 150, 589, 1140, 1157, 330, -349, -86, 165, -55, -81, 38, 2, -21, 31, 40, 28, 43, 55, 59, 64, 62, 62, 86, 107, 119, 146, 174, 191, 218, 249, 270, 289, 297, 285, 263, 227, 182, 134, 76, 21, -11, -43, -69, -62, -50, -50, -40, -31, -28, -21, -19, -38, -59, -52, -38, -33, -31, -19, -9, -11, -11, -16, -31]"
1714134070551153752,"[-38, -35, -35, -38, -47, -62, -69, -57, -45, -43, -47, -43, -28, -19, -16, -14, -9, -11, -2, 14, 4, -14, -11, -2, 7, 16, 19, 21, 26, 23, 33, 50, 52, 43, 45, 55, 57, 45, 21, 11, 16, 21, 45, 79, 91, 67, 38, 35, 47, 57, 59, 62, 62, 52, 43, 50, 119, 443, 997, 1253, 663, -198, -194, 172, 35, -93, 40, 57, -2, 26, 52, 43, 57]"
1714134071112283131,"[79, 76, 69, 81, 103, 122, 139, 143, 124, 127, 170, 198, 201, 213, 237, 251, 258, 266, 258, 215, 153, 98, 45, 4, -14, -38, -71, -83, -67, -69, -103, -119, -105, -91, -79, -59, -59, -81, -88, -81, -79, -71, -57, -59, -71, -69, -55, -52, -43, -38, -50, -43, -21, -14, -14, -14, -14, -9, 2, 16, 19, 2, 4, 28, 35, 33, 38, 43, 40, 43, 52, 64, 62]"
1714134071673381992,"[52, 57, 57, 47, 43, 45, 45, 45, 50, 59, 59, 40, 23, 35, 47, 45, 47, 62, 86, 98, 83, 69, 55, 26, 11, 31, 47, 45, 43, 52, 45, 95, 440, 1025, 1260, 623, -244, -208, 165, 23, -100, 28, 35, -19, 23, 52, 33, 40, 67, 71, 74, 91, 105, 115, 131, 143, 160, 182, 201, 227, 256, 273, 289, 304, 301, 297, 280, 218, 143, 88, 33, -19, -47]"
1714134072234480853,"[-62, -67, -69, -79, -83, -86, -95, -103, -112, -122, -110, -98, -98, -86, -79, -88, -100, -107, -100, -86, -74, -71, -62, -50, -50, -50, -45, -50, -47, -26, -23, -33, -21, -9, -7, -2, 4, 9, 16, 19, 23, 33, 33, 31, 40, 50, 57, 55, 57, 59, 52, 62, 79, 76, 71, 74, 74, 74, 67, 52, 43, 55, 79, 98, 107, 105, 83, 62, 62, 69, 76, 79, 76]"
1714134072795579714,"[76, 79, 83, 158, 476, 970, 1121, 510, -254, -218, 107, -19, -131, -11, 9, -28, 2, 9, -4, 23, 45, 40, 57, 74, 79, 93, 117, 139, 165, 184, 196, 225, 268, 297, 309, 309, 309, 306, 285, 249, 189, 105, 40, 11, -9, -28, -52, -81, -86, -81, -91, -76, -57, -71, -69, -43, -38, -52, -64, -81, -81, -57, -40, -33, -33, -38, -35, -19, -7, -4, -14, -19, -9]"
1714134073356678575,"[4, 0, -33, -59, -47, -26, -14, -14, -35, -64, -64, -38, -26, -9, 21, 16, -9, -11, 4, 11, 9, 9, 21, 31, 35, 45, 47, 112, 457, 1016, 1167, 462, -309, -155, 194, 28, -52, 81, 67, 9, 35, 45, 43, 62, 74, 76, 91, 115, 129, 134, 153, 179, 191, 215, 258, 285, 299, 325, 347, 354, 349, 328, 294, 239, 158, 91, 45, -9, -64, -83, -74, -71, -83]"
1714134073917777440,"[-98, -88, -69, -64, -55, -45, -67, -69, -45, -38, -33, -14, -9, -4, 11, 9, 4, 14, 23, 28, 33, 33, 28, 16, 4, 9, 14, 7, 11, 21, 11, -4, -16, -16, -14, -26, -38, -35, -26, -21, -16, -14, -16, -11, -4, 9, 38, 45, 28, 21, 16, 14, 11, 14, 26, 35, 40, 43, 35, 67, 337, 872, 1212, 735, -201, -359, 62, 23, -153, -45, 2, -62, -33]"
1714134074478886475,"[21, 7, 2, 31, 43, 47, 69, 81, 81, 79, 83, 110, 148, 170, 186, 210, 239, 268, 289, 289, 278, 254, 206, 146, 88, 28, -26, -47, -50, -52, -55, -45, -45, -50, -35, -19, -11, -7, 2, 7, 4, 16, 38, 31, 16, 31, 47, 45, 47, 59, 47, 35, 52, 47, -4, -28, -11, -11, -11, 7, 16, 7, 4, 21, 33, 33, 40, 40, 26, 19, 21, 28, 38]"
1714134075040005680,"[33, 19, 26, 45, 45, 38, 26, 9, 2, 0, -2, -2, -33, -69, -50, -9, -9, -31, -40, -45, -38, -28, -14, -7, -9, -7, -2, -2, 105, 532, 1136, 1270, 486, -318, -146, 158, -55, -124, 14, 0, -35, 9, 16, 2, 26, 35, -9, -33, -2, 21, 33, 57, 83, 98, 122, 150, 182, 213, 242, 258, 263, 263, 261, 254, 227, 170, 91, 31, 7, -4, -26, -40, -33]"
1714134075601104541,"[-23, -21, -16, -9, -4, -11, -19, -2, 9, -7, -23, -11, -2, -2, 7, 9, 2, 16, 26, 16, 26, 38, 35, 35, 40, 43, 45, 43, 43, 50, 50, 47, 50, 50, 55, 62, 45, 26, 28, 9, -7, 11, 16, 4, 0, -2, 0, 2, 7, 14, 14, 14, 26, 23, 2, 2, 2, -16, -14, -2, -9, -7, 2, 2, 4, 9, 19, 40, 45, 14, 0, 7, 0]"
1714134076162203402,"[-2, 9, 16, 23, 31, 28, 11, 83, 467, 1018, 1136, 440, -316, -191, 139, -21, -110, 7, 2, -35, 7, 35, 28, 28, 40, 52, 69, 76, 71, 81, 95, 93, 93, 129, 167, 189, 210, 242, 273, 280, 282, 287, 254, 203, 160, 103, 38, -11, -40, -57, -57, -45, -43, -57, -55, -35, -16, -4, 0, -14, -23, -14, 4, 14, 16, 9, 9, 21, 31, 38, 50, 45, 35]"
1714134076723302263,"[50, 69, 69, 57, 26, 7, 21, 33, 38, 38, 28, 38, 52, 47, 50, 52, 28, 19, 31, 14, 2, 16, 9, -23, -43, -33, -26, -23, -21, -23, -35, -47, -50, -50, -52, -40, -23, -19, -16, -21, -35, 55, 436, 1006, 1198, 508, -337, -232, 139, -28, -136, -11, -21, -62, -16, 2, 2, 14, 16, 26, 52, 67, 71, 79, 91, 119, 150, 165, 186, 220, 256, 280, 301]"
1714134077284401128,"[313, 309, 297, 273, 227, 160, 88, 19, -40, -67, -83, -98, -98, -91, -83, -93, -119, -110, -79, -74, -64, -50, -43, -33, -31, -28, -23, -21, -7, 19, 19, 16, 26, 16, 21, 47, 40, 26, 38, 38, 19, 19, 14, -4, -2, 7, 14, 19, 19, 9, -7, -14, -4, -7, -14, -14, -19, -14, 2, -2, -7, 7, 14, 9, 7, 9, 9, 21, 38, 31, 28, 38, 33]"
1714134077845479645,"[26, 19, 14, 26, 28, 23, 35, 33, -2, -23, -21, -31, -23, 0, 7, -2, 0, 21, 52, 71, 62, 38, 26, 40, 47, 35, 45, 62, 55, 55, 67, 91, 323, 865, 1315, 1004, 38, -333, 52, 91, -127, -45, 38, -21, -19, 19, 14, 21, 52, 69, 55, 40, 69, 98, 100, 115, 143, 162, 177, 201, 232, 256, 275, 287, 287, 275, 266, 249, 201, 131, 76, 35, -4]"
1714134078406598850,"[-50, -103, -136, -119, -88, -91, -98, -103, -119, -127, -115, -103, -112, -124, -115, -95, -88, -83, -74, -74, -76, -64, -47, -40, -52, -67, -62, -45, -35, -31, -28, -26, -19, -7, 2, 7, 7, 4, 11, 26, 35, 35, 31, 31, 35, 40, 52, 64, 59, 52, 64, 74, 74, 74, 71, 62, 47, 43, 59, 67, 57, 55, 67, 74, 76, 83, 69, 35, 26, 43, 57, 59, 55]"
1714134078967687541,"[52, 59, 67, 74, 91, 105, 105, 100, 86, 69, 59, 40, 31, 45, 52, 43, 28, 16, 105, 515, 1116, 1272, 536, -287, -170, 153, -26, -105, 23, 2, -40, 7, 33, 31, 38, 40, 50, 64, 74, 88, 100, 95, 95, 115, 146, 172, 186, 196, 215, 234, 244, 244, 232, 203, 162, 115, 47, -21, -71, -129, -172, -165, -150, -153, -148, -134, -117, -107, -98, -81, -67, -59, -59]"
1714134079528796572,"[-57, -33, -19, -26, -31, -26, -28, -43, -47, -40, -33, -33, -23, -4, -4, -11, 0, 9, 14, 16, 21, 23, 26, 35, 43, 38, 35, 45, 57, 62, 62, 62, 59, 74, 81, 69, 74, 83, 69, 64, 76, 74, 71, 79, 81, 81, 79, 74, 81, 81, 76, 67, 40, 31, 43, 45, 50, 67, 67, 55, 67, 93, 110, 107, 81, 62, 64, 67, 67, 71, 62, 40, 33]"
1714134080089864915,"[38, 129, 508, 1071, 1243, 553, -297, -218, 139, -31, -146, -19, -14, -50, 2, 23, 0, 11, 35, 35, 33, 38, 45, 50, 67, 91, 112, 131, 162, 182, 177, 194, 218, 213, 201, 203, 201, 174, 117, 45, -28, -79, -86, -91, -129, -162, -162, -148, -143, -127, -107, -107, -110, -93, -64, -52, -45, -38, -47, -43, -23, -26, -33, -31, -33, -28, -4, 4, 0, 0, 0, 2, 19]"
1714134080650963780,"[31, 31, 23, 16, 26, 35, 40, 43, 21, 4, 19, 33, 31, 43, 55, 38, 33, 45, 64, 64, 33, 26, 47, 59, 62, 64, 76, 100, 115, 91, 71, 71, 59, 52, 64, 74, 59, 31, 19, 35, 105, 402, 889, 1083, 546, -230, -249, 139, 79, -74, 16, 55, 0, 0, 23, 19, 7, 21, 40, 45, 55, 74, 88, 93, 100, 112, 127, 143, 170, 201, 230, 256, 266]"
1714134081212062641,"[266, 263, 249, 208, 141, 62, 2, -43, -83, -105, -107, -112, -117, -112, -100, -88, -86, -95, -98, -86, -74, -62, -45, -43, -47, -28, -14, -11, 2, 0, -23, -21, -7, -4, 2, 14, 9, 4, 11, 21, 31, 28, 19, 19, 14, 4, 14, 35, 40, 33, 35, 47, 52, 45, 55, 79, 91, 93, 88, 67, 50, 55, 67, 67, 59, 64, 76, 81, 76, 124, 414, 951, 1243]"
1714134081773161502,"[718, -167, -256, 146, 71, -93, 19, 50, -26, -14, 23, 19, 26, 47, 45, 47, 74, 88, 93, 112, 136, 148, 150, 153, 172, 206, 242, 268, 285, 289, 282, 261, 225, 165, 81, 11, -26, -74, -105, -91, -79, -79, -62, -64, -86, -76, -55, -59, -59, -50, -45, -40, -23, -14, -31, -55, -50, -47, -47, -28, -21, -45, -47, -31, -28, -23, -21, -35, -35, -23, -19, -14, -4]"
1714134082334260363,"[-9, -7, 7, 16, 23, 14, -19, -21, 7, 7, 7, 16, 9, 19, 35, 7, -26, -11, 4, 2, 9, 28, 55, 64, 43, 21, 11, 7, 14, 11, 4, 16, 45, 52, 35, 64, 345, 920, 1344, 951, -28, -316, 91, 91, -110, -16, 43, -26, -11, 38, 40, 43, 57, 57, 59, 69, 83, 100, 95, 86, 112, 148, 170, 194, 222, 244, 258, 280, 299, 304, 294, 256, 198]"
1714134082895384659,"[146, 86, 23, -2, -14, -35, -43, -57, -95, -107, -88, -86, -81, -57, -40, -40, -55, -59, -47, -26, -23, -43, -35, -9, -4, -4, 4, 7, 7, 19, 21, 0, -9, 0, 4, 0, 14, 23, 11, 4, 9, 2, -4, -4, -14, -19, -19, -16, -16, -28, -38, -26, -16, -19, -16, -11, -9, 2, 9, 4, 16, 21, 14, 23, 50, 71, 79, 57, 28, 38, 47, 33, 23]"
1714134083456458085,"[14, -2, 9, 21, 9, 129, 558, 1109, 1171, 378, -381, -186, 100, -91, -134, -9, -35, -69, -19, 0, -4, 9, 21, 28, 45, 64, 74, 88, 107, 122, 136, 162, 194, 220, 244, 261, 280, 301, 306, 289, 258, 215, 158, 91, 43, 11, -23, -45, -38, -31, -31, -31, -23, -21, -16, -4, 14, 21, 16, 14, 21, 23, 33, 45, 40, 11, -4, 19, 35, 14, 4, 16, 7]"
1714134084017556950,"[-9, 11, 26, -7, -33, -14, 2, 2, 7, 7, 4, 19, 23, 16, 9, 4, 2, 9, 19, 23, 23, 14, 11, 19, 16, 4, -9, -19, -9, -7, -11, -11, -19, -28, -28, -14, -2, 0, 0, -4, -2, 16, 43, 62, 59, 40, 28, 31, 35, 38, 38, 35, 40, 52, 55, 59, 244, 738, 1215, 1016, 112, -354, -7, 83, -143, -79, 19, -47, -50, 0, 0, 2, 26]"
1714134084578665985,"[38, 33, 47, 76, 83, 93, 119, 134, 141, 170, 201, 220, 230, 237, 254, 278, 282, 270, 244, 198, 143, 83, 16, -31, -47, -57, -62, -57, -50, -43, -35, -35, -31, -11, 2, 4, 4, 4, 9, 23, 33, 31, 28, 38, 43, 43, 50, 55, 50, 50, 38, 9, -2, 0, -19, -35, -26, -11, -2, -4, -7, -2, -4, -14, -16, -21, -33, -40, -33, -21, -19, -26, -23]"
1714134085139754672,"[-11, -4, -2, 0, 0, 7, 14, 11, 11, 7, -11, -7, 11, -11, -33, -11, 9, 11, 9, 14, 21, 28, 45, 76, 81, 59, 45, 40, 38, 47, 59, 67, 64, 59, 67, 74, 182, 599, 1159, 1219, 436, -278, -74, 162, -76, -119, 4, -33, -59, 4, 19, -4, 16, 47, 45, 45, 67, 81, 88, 107, 136, 150, 162, 186, 220, 254, 275, 289, 301, 304, 301, 292, 256]"
1714134085700853533,"[189, 117, 64, 28, -14, -50, -71, -88, -107, -100, -83, -83, -88, -81, -64, -50, -40, -38, -47, -57, -45, -35, -47, -50, -52, -57, -40, -23, -26, -35, -31, -26, -21, -14, -9, -9, -14, -31, -38, -26, -11, -4, -7, -11, 4, 19, 14, 9, 16, 28, 43, 47, 45, 40, 35, 43, 55, 57, 62, 67, 59, 59, 69, 74, 81, 79, 67, 67, 64, 57, 67, 71, 52]"
1714134086261952394,"[50, 76, 100, 119, 117, 79, 57, 69, 76, 71, 52, 35, 47, 57, 47, 79, 289, 778, 1224, 977, 69, -316, 67, 134, -91, -23, 62, -4, -31, -21, -33, -14, 19, 26, 28, 33, 45, 67, 88, 103, 115, 136, 165, 191, 213, 244, 270, 280, 282, 273, 261, 239, 186, 124, 71, 23, -19, -50, -79, -107, -127, -127, -122, -119, -119, -115, -100, -88, -86, -76, -67, -69, -57]"
1714134086823051255,"[-28, -26, -38, -31, -21, -14, -9, -26, -40, -28, -16, -19, -7, 0, -4, 0, 7, 0, -7, -7, -2, -11, -38, -43, -33, -28, -16, -2, 0, 4, 16, 16, 16, 26, 40, 47, 43, 33, 45, 57, 47, 47, 59, 64, 69, 74, 67, 62, 69, 74, 62, 43, 47, 74, 95, 95, 79, 59, 59, 67, 62, 57, 69, 76, 74, 67, 76, 227, 678, 1191, 1121, 273, -321]"
1714134087384150120,"[-14, 191, -35, -45, 55, -11, -35, 31, 35, 2, 2, 16, 31, 38, 21, 7, 26, 40, 52, 76, 95, 122, 155, 179, 203, 237, 254, 239, 210, 191, 160, 88, 14, -33, -74, -110, -115, -103, -110, -122, -115, -107, -117, -115, -95, -95, -98, -71, -50, -45, -38, -38, -35, -21, -7, 2, 9, 7, 4, 9, 16, 21, 23, 19, 21, 35, 38, 43, 47, 38, 31, 43, 55]"
1714134087945228637,"[47, 28, 14, 21, 40, 47, 31, -2, -14, 9, 23, 19, 28, 23, -4, 0, 23, 31, 38, 40, 26, 28, 47, 57, 57, 47, 43, 52, 59, 55, 59, 69, 64, 59, 83, 98, 74, 40, 31, 45, 57, 50, 52, 67, 67, 59, 74, 203, 603, 1109, 1109, 318, -318, -52, 191, -28, -59, 64, 28, -2, 40, 47, 35, 55, 64, 47, 45, 62, 67, 71, 83, 83, 67]"
1714134088506317324,"[74, 117, 153, 177, 198, 210, 203, 198, 196, 174, 122, 43, -28, -74, -117, -150, -162, -162, -160, -153, -136, -124, -122, -124, -131, -129, -112, -95, -91, -83, -71, -59, -43, -28, -28, -28, -21, -16, -4, 11, 7, 0, 9, 16, 23, 31, 26, 28, 38, 33, 35, 50, 52, 55, 57, 45, 35, 31, 33, 47, 52, 45, 50, 59, 38, 19, 55, 88, 64, 38, 35, 40, 43]"
1714134089067416185,"[45, 50, 55, 59, 64, 55, 105, 405, 877, 1052, 515, -261, -275, 129, 59, -103, -2, 38, -7, 19, 40, 31, 55, 76, 71, 86, 103, 107, 124, 148, 158, 172, 196, 222, 256, 285, 309, 333, 345, 349, 342, 313, 266, 198, 122, 62, 14, -35, -74, -95, -105, -88, -71, -79, -83, -74, -83, -107, -105, -95, -107, -115, -105, -91, -81, -74, -71, -74, -62, -45, -35, -28, -26]"
1714134089628515046,"[-31, -28, -23, -16, -2, -4, -23, -28, -11, -4, -14, -31, -35, -14, 0, 2, -4, -11, -2, 16, 28, 38, 35, 26, 33, 47, 52, 55, 57, 50, 55, 76, 95, 110, 105, 81, 59, 57, 50, 43, 50, 50, 50, 59, 59, 81, 311, 848, 1291, 956, -9, -352, 40, 71, -134, -45, 23, -35, -21, 11, 11, 28, 45, 43, 38, 50, 76, 86, 93, 112, 122, 131, 153]"
1714134090189583389,"[189, 222, 239, 251, 270, 287, 292, 278, 234, 167, 100, 47, 7, -23, -50, -69, -74, -69, -62, -59, -57, -43, -33, -31, -21, -11, -11, -9, -26, -52, -38, -19, -26, -31, -28, -19, -11, -23, -28, -21, -28, -71, -105, -93, -83, -91, -83, -71, -67, -62, -59, -59, -52, -38, -21, -21, -31, -23, -11, -7, -4, -2, -2, -7, -11, 2, 16, 7, 16, 43, 57, 69, 62]"
1714134090750682254,"[31, 28, 40, 31, 31, 38, 21, 21, 35, 26, 59, 330, 834, 1116, 649, -174, -268, 124, 83, -86, -9, 14, -35, -7, 19, 23, 50, 59, 57, 64, 76, 95, 107, 95, 81, 83, 136, 191, 198, 210, 251, 273, 275, 278, 282, 268, 227, 179, 98, 26, 2, -31, -81, -95, -86, -71, -57, -59, -71, -62, -33, -26, -35, -31, -19, -19, -9, 4, 4, 16, 31, 23, 23]"
1714134091311760771,"[40, 43, 33, 28, 31, 52, 64, 31, -2, -9, -7, -16, -23, 4, 14, -23, -45, -40, -35, -50, -67, -62, -59, -47, -11, -4, 7, 191, 615, 951, 639, -184, -452, -52, 40, -129, -71, -9, -57, -43, 4, 7, 2, 0, -2, 7, 31, 64, 91, 91, 83, 107, 155, 186, 218, 261, 285, 294, 313, 321, 304, 261, 198, 122, 45, -14, -40, -55, -91, -95, -71, -74, -81]"
1714134091872849458,"[-67, -57, -64, -71, -57, -38, -40, -52, -40, -14, -7, -11, -26, -35, -11, 9, 9, 7, 7, 7, -2, -21, -9, 14, 0, -9, 7, 19, 28, 35, 14, 0, 7, 11, 7, -4, -7, 0, 11, 35, 59, 172, 520, 937, 910, 213, -364, -117, 165, -16, -62, 67, 50, 9, 47, 55, 43, 71, 83, 74, 79, 88, 100, 117, 129, 134, 153, 172, 191, 218, 242, 256, 254]"
1714134092433917801,"[242, 237, 220, 160, 79, 2, -67, -103, -124, -155, -158, -143, -167, -201, -189, -162, -155, -146, -127, -110, -98, -88, -76, -64, -62, -57, -50, -45, -35, -21, -16, -7, 4, 0, 0, 19, 28, 28, 38, 45, 38, 43, 50, 50, 55, 67, 71, 74, 79, 81, 83, 88, 91, 86, 91, 95, 88, 76, 74, 74, 74, 71, 69, 69, 83, 107, 115, 107, 93, 86, 88, 93, 93]"
1714134092995016662,"[83, 76, 86, 105, 105, 74, 220, 778, 1435, 1342, 309, -357, -28, 119, -131, -93, 11, -69, -88, -31, -38, -43, -16, -19, -26, -4, 14, 26, 38, 38, 35, 50, 57, 69, 105, 127, 146, 184, 198, 194, 203, 189, 136, 83, 40, 2, -28, -47, -59, -76, -79, -52, -45, -62, -52, -23, -11, -7, 4, 4, 2, 11, 23, 31, 23, 14, 26, 38, 38, 43, 33, 4, 4]"
1714134093556115523,"[31, 38, 28, 19, 26, 40, 45, 35, 26, 14, -7, 0, 28, 31, 23, 33, 40, 57, 88, 91, 57, 40, 43, 45, 52, 62, 62, 57, 62, 64, 71, 263, 812, 1385, 1248, 258, -347, 11, 174, -91, -71, 40, -11, -16, 35, 19, 9, 47, 67, 64, 76, 76, 71, 105, 139, 141, 153, 177, 184, 191, 222, 251, 251, 234, 215, 208, 179, 115, 28, -40, -76, -127, -172]"
1714134094117214388,"[-172, -186, -203, -167, -146, -155, -148, -150, -158, -136, -119, -127, -112, -86, -81, -91, -74, -47, -50, -47, -21, -19, -21, -2, 7, 0, 0, 7, 28, 31, 14, 11, 16, 21, 43, 57, 43, 35, 57, 64, 57, 62, 67, 71, 81, 81, 74, 86, 107, 127, 131, 117, 95, 88, 86, 91, 83, 55, 43, 57, 64, 67, 124, 426, 946, 1176, 606, -220, -218, 150, 33, -93, 43]"
1714134094678313249,"[67, 7, 38, 69, 57, 59, 79, 86, 91, 95, 83, 83, 115, 134, 148, 182, 201, 222, 261, 289, 301, 309, 301, 275, 242, 191, 117, 45, -2, -33, -52, -62, -74, -86, -93, -91, -86, -88, -95, -86, -74, -67, -57, -52, -55, -47, -33, -21, -21, -45, -64, -47, -31, -43, -55, -45, -43, -45, -35, -19, -7, 2, 9, 4, 2, 21, 38, 33, 28, 35, 47, 55, 64]"
1714134095239412110,"[59, 55, 62, 71, 76, 86, 86, 59, 43, 59, 76, 74, 67, 64, 79, 105, 115, 98, 74, 64, 69, 79, 91, 100, 100, 88, 91, 105, 246, 716, 1310, 1308, 409, -294, -9, 220, -31, -55, 69, 28, -7, 16, -14, -38, -9, -4, -11, 9, 19, 9, 16, 35, 50, 57, 71, 95, 131, 165, 189, 206, 218, 220, 215, 203, 162, 95, 26, -21, -43, -52, -59, -64, -67]"
1714134095800510971,"[-62, -50, -35, -28, -35, -35, -31, -23, -9, 4, -4, -23, -23, -4, 7, 9, 9, 9, 11, 16, 26, 38, 40, 33, 35, 52, 67, 62, 59, 57, 55, 62, 71, 69, 55, 19, -11, -7, 4, 2, 9, 21, 14, 16, 38, 43, 33, 33, 40, 43, 47, 45, 45, 47, 40, 31, 33, 35, 40, 43, 43, 45, 50, 55, 59, 59, 31, -9, -26, -33, -40, -43, -31]"
1714134096361579314,"[-19, -16, -11, -4, 93, 493, 1080, 1203, 428, -373, -208, 105, -93, -170, -35, -40, -81, -43, -14, -9, -2, 14, 31, 33, 43, 57, 57, 59, 64, 81, 117, 143, 162, 206, 244, 251, 263, 280, 273, 249, 210, 148, 74, 4, -33, -38, -43, -57, -64, -57, -50, -52, -50, -35, -33, -33, -19, 2, 2, -21, -40, -28, -2, 4, -2, 0, 4, 7, 19, 26, 31, 31, 28]"
1714134096922678175,"[31, 38, 45, 45, 21, 0, 2, 9, 19, 28, 16, 11, 33, 40, 33, 43, 57, 62, 55, 14, -38, -57, -57, -55, -50, -31, -16, -16, -28, -55, -23, 249, 769, 1088, 606, -282, -393, 43, 7, -165, -57, -14, -69, -38, 2, -14, -16, 14, 38, 47, 45, 35, 47, 76, 103, 127, 155, 177, 203, 237, 275, 311, 330, 328, 306, 280, 225, 136, 67, 21, -23, -50, -59]"
1714134097483777040,"[-64, -59, -57, -59, -50, -33, -28, -38, -57, -74, -67, -52, -38, -47, -71, -67, -43, -28, -11, -4, -14, -16, 2, 19, 21, 19, 16, 16, 21, 33, 45, 45, 38, 35, 43, 52, 59, 62, 52, 50, 59, 55, 40, 35, 28, 21, 23, 31, 40, 38, 38, 55, 74, 83, 59, 16, -4, -7, -9, -4, 2, 2, -2, 4, 14, 55, 333, 898, 1282, 822, -139, -311, 103]"
1714134098044875901,"[33, -165, -52, 0, -55, -33, -19, -50, -38, -9, -9, -23, -19, 7, 16, 31, 59, 81, 103, 134, 162, 191, 225, 251, 270, 275, 268, 258, 230, 172, 107, 47, -4, -40, -52, -62, -62, -52, -47, -38, -31, -28, -14, -2, -2, 2, 14, 21, 26, 28, 23, 28, 33, 38, 45, 47, 43, 45, 50, 52, 59, 64, 57, 52, 50, 38, 40, 52, 50, 45, 43, 21, 2]"
1714134098605944244,"[11, 21, 2, -11, 4, 16, 7, 2, -7, -23, -16, -2, -14, -31, -33, -43, -43, -31, -21, -7, 9, 9, -14, -33, -43, -47, -50, -38, -19, -9, -7, -9, 0, 189, 704, 1236, 1104, 174, -393, -43, 110, -124, -81, 16, -57, -52, 16, 16, 4, 19, 26, 31, 50, 71, 86, 79, 79, 103, 136, 160, 174, 189, 213, 227, 222, 230, 234, 218, 201, 170, 112, 55, 2]"
1714134099167043105,"[-45, -62, -55, -57, -52, -50, -59, -45, -26, -26, -21, -28, -55, -52, -40, -52, -47, -38, -43, -33, -19, -11, -4, -4, -7, -2, 7, 14, 19, 19, 16, 21, 28, 31, 33, 31, 28, 35, 45, 52, 47, 21, 7, 23, 31, 31, 28, 16, 4, 14, 23, 11, -7, -14, -21, -23, -33, -52, -57, -45, -38, -23, 2, 11, -9, -26, -26, -21, -7, 2, -4, 0, 21]"
1714134099728136883,"[23, 23, 174, 611, 1085, 1013, 198, -388, -103, 98, -124, -124, -2, -33, -52, -7, -4, -9, 21, 40, 40, 50, 69, 83, 98, 122, 139, 153, 177, 206, 242, 275, 297, 306, 313, 316, 309, 275, 213, 146, 86, 23, -11, -26, -47, -55, -38, -33, -47, -74, -91, -69, -47, -47, -40, -28, -31, -16, 2, 0, -2, 11, 26, 28, 28, 31, 33, 35, 43, 38, 16, 9, 21]"
1714134100289210309,"[23, 21, 35, 38, 31, 31, 21, 7, 19, 35, 31, 23, 38, 67, 91, 79, 43, 16, 14, 21, 28, 31, 28, 31, 31, 26, 21, 148, 577, 1073, 1004, 158, -445, -131, 95, -131, -139, -11, -45, -67, -19, -14, -40, -35, -9, 2, 2, 9, 35, 64, 81, 100, 122, 146, 179, 218, 246, 268, 280, 282, 278, 256, 218, 158, 76, 7, -26, -50, -71, -79, -81, -81, -69]"
1714134100850309174,"[-52, -38, -43, -67, -69, -47, -35, -26, -14, -19, -19, -2, 11, 21, 28, 21, 21, 33, 43, 40, 21, 4, 14, 26, 28, 38, 38, 26, 31, 47, 55, 55, 52, 40, 19, 4, 14, 28, 21, 11, 26, 43, 43, 33, 14, 4, 26, 57, 74, 69, 38, 9, -2, -11, -14, -16, -33, -38, -21, -19, -21, 143, 630, 1181, 1124, 230, -393, -81, 103, -136, -119, 2, -45]"
1714134101411377517,"[-64, -16, -11, -16, 9, 26, 31, 31, 40, 64, 79, 69, 59, 71, 100, 134, 165, 196, 218, 230, 239, 246, 249, 230, 179, 115, 47, -19, -64, -74, -81, -88, -81, -67, -59, -52, -43, -31, -28, -19, -2, 2, -7, -19, -23, -11, 7, 7, 2, 11, 21, 23, 28, 28, 33, 38, 38, 43, 47, 45, 47, 50, 50, 62, 69, 59, 59, 69, 69, 67, 67, 71, 76]"
1714134101972476378,"[76, 64, 52, 43, 45, 45, 33, 26, 33, 21, 14, 43, 55, 28, 7, -7, -21, -21, -26, -38, -55, -76, -74, -62, -2, 342, 932, 1193, 591, -289, -299, 76, -52, -189, -74, -59, -100, -62, -40, -50, -31, -2, 9, 16, 23, 33, 57, 86, 105, 119, 139, 162, 191, 227, 256, 263, 268, 278, 282, 273, 237, 167, 95, 47, 11, -16, -43, -69, -71, -52, -45, -40, -28]"
1714134102533544721,"[-23, -28, -19, -4, 2, 4, -4, -21, -14, 2, 7, 7, 9, -4, -21, -9, 9, 2, -4, 2, 9, 16, 26, 28, 26, 16, 14, 26, 38, 33, 26, 33, 47, 55, 52, 50, 57, 81, 105, 93, 74, 69, 62, 57, 67, 67, 52, 45, 47, 47, 50, 198, 647, 1131, 1011, 158, -388, -69, 107, -129, -127, -11, -52, -57, 0, -9, -31, 2, 31, 33, 43, 52, 64]"
1714134103094643582,"[83, 105, 131, 155, 170, 186, 201, 203, 227, 249, 222, 201, 208, 184, 122, 55, -11, -74, -98, -95, -100, -105, -100, -93, -83, -69, -52, -45, -43, -35, -19, -7, 0, 7, 16, 19, 26, 40, 47, 43, 45, 47, 52, 59, 64, 62, 59, 55, 43, 35, 40, 40, 38, 43, 50, 57, 59, 52, 55, 62, 67, 83, 105, 112, 95, 69, 64, 71, 67, 62, 71, 59, 28]"
1714134103655742447,"[23, 31, 35, 232, 764, 1251, 973, 9, -369, 47, 110, -117, -43, 19, -67, -62, -16, -19, -14, 2, 7, 21, 38, 45, 52, 55, 67, 79, 88, 110, 136, 158, 186, 208, 215, 222, 222, 203, 172, 107, 23, -28, -55, -79, -93, -93, -88, -83, -76, -69, -55, -43, -40, -35, -23, -9, -2, 4, 7, 7, 9, 19, 31, 19, -19, -33, -16, -7, -2, 9, 7, -2, -4]"
1714134104216887085,"[7, 16, 16, 11, -2, -11, -4, 11, 16, 19, 19, 23, 31, 43, 47, 43, 43, 50, 59, 67, 67, 57, 57, 74, 98, 119, 117, 83, 62, 64, 59, 45, 50, 50, 43, 50, 64, 74, 225, 695, 1222, 1150, 263, -345, -35, 141, -103, -86, 33, -23, -55, -21, -33, -45, -21, -14, -45, -64, -40, -9, 4, 21, 35, 45, 67, 103, 136, 165, 184, 191, 201, 213, 210]"
1714134104777909651,"[194, 148, 76, 28, 2, -28, -47, -57, -71, -69, -52, -38, -35, -50, -67, -50, -28, -23, -19, -21, -19, -14, -21, -23, -7, -4, -7, 0, 9, 16, 23, 19, 11, 23, 35, 35, 35, 35, 35, 40, 55, 55, 45, 40, 45, 52, 57, 62, 50, 16, 9, 31, 40, 28, 11, 9, 16, 23, 33, 47, 62, 69, 59, 43, 38, 43, 40, 38, 45, 55, 64, 64, 52]"
1714134105338977994,"[71, 306, 824, 1195, 798, -98, -309, 93, 83, -103, -31, -16, -95, -88, -57, -57, -57, -52, -35, -16, -4, 7, 23, 40, 59, 83, 110, 134, 155, 182, 210, 232, 242, 244, 239, 227, 198, 136, 67, 26, -19, -81, -117, -117, -119, -134, -129, -107, -95, -93, -81, -67, -57, -43, -31, -28, -16, -7, -7, 7, 16, 14, 16, 23, 26, 38, 40, 33, 35, 40, 43, 50, 50]"
1714134105900076855,"[50, 55, 52, 45, 38, 38, 38, 31, 11, 14, 47, 71, 55, 26, 19, 31, 38, 38, 43, 47, 45, 55, 62, 57, 179, 618, 1133, 1068, 225, -349, -26, 186, -38, -45, 50, -23, -64, -23, -19, -21, 7, 19, 16, 28, 52, 71, 83, 88, 91, 95, 117, 153, 184, 208, 220, 227, 232, 232, 220, 182, 110, 38, -11, -47, -74, -91, -107, -115, -119, -119, -100, -86, -93]"
1714134106461145198,"[-88, -67, -47, -38, -43, -62, -64, -43, -23, -14, -11, -19, -16, 4, 16, 16, 11, 9, 19, 28, 31, 38, 38, 31, 38, 47, 40, 14, -2, 0, 11, 26, 38, 40, 35, 33, 40, 50, 55, 64, 76, 91, 98, 81, 64, 67, 67, 55, 59, 74, 81, 81, 74, 64, 124, 450, 1013, 1286, 697, -201, -220, 174, 55, -95, 11, 19, -28, 14, 43, 21, 23, 43, 50]"
1714134107022244059,"[50, 47, 47, 40, 47, 74, 100, 110, 110, 117, 146, 174, 191, 201, 203, 191, 179, 143, 64, -38, -98, -112, -131, -150, -136, -117, -119, -115, -98, -86, -74, -59, -52, -47, -38, -23, -9, -7, -7, 2, 11, 19, 21, 23, 23, 26, 33, 38, 38, 38, 35, 26, 28, 40, 47, 43, 43, 50, 52, 55, 59, 59, 62, 67, 69, 71, 74, 71, 74, 81, 79, 79, 81]"
1714134107583342924,"[79, 83, 88, 83, 81, 69, 47, 50, 52, 35, 38, 43, 31, 26, 16, -4, -14, -11, -9, 0, 11, 9, 9, 9, 57, 359, 937, 1267, 718, -234, -325, 71, -31, -184, -64, -40, -95, -52, -21, -40, -31, -16, -19, -4, 16, 23, 35, 59, 79, 100, 122, 146, 170, 194, 218, 244, 256, 254, 246, 239, 218, 170, 115, 57, 7, -14, -16, -23, -33, -35, -28, -21, -16]"
1714134108144441785,"[-21, -28, -31, -38, -57, -55, -35, -31, -52, -69, -55, -33, -26, -26, -28, -23, -9, 2, 4, 7, 7, 11, 21, 31, 35, 38, 31, 28, 40, 50, 55, 50, 38, 33, 43, 55, 64, 57, 45, 50, 62, 67, 71, 71, 64, 67, 76, 83, 83, 76, 59, 50, 57, 64, 59, 55, 50, 52, 59, 69, 76, 71, 57, 26, -16, -33, -23, -26, -38, -52, -59, -45, -38]"
1714134108705540646,"[-50, 62, 505, 1073, 1128, 333, -381, -158, 107, -100, -129, -14, -69, -107, -43, -19, -28, -11, 0, 0, 19, 40, 55, 62, 64, 81, 110, 141, 167, 189, 203, 222, 246, 263, 266, 254, 239, 206, 155, 105, 62, 19, -9, -23, -28, -26, -19, -19, -16, -9, 2, 11, 9, 9, 14, 2, -9, 7, 16, 9, 14, 7, -23, -26, -9, -7, -9, -2, 7, 11, 11, 14, 23]"
1714134109266629337,"[23, 23, 33, 35, 35, 43, 40, 40, 43, 23, 14, 28, 26, 7, -9, -14, -7, 0, -2, 0, 4, 11, 11, 0, -11, -9, -19, -31, -19, -4, -9, -7, -4, -7, 4, 26, 43, 52, 40, 16, 14, 16, 14, 21, 28, 28, 21, 11, 7, 69, 400, 956, 1188, 572, -287, -263, 107, -28, -143, -11, -9, -62, -14, 14, 7, 19, 35, 43, 52, 71, 86, 98, 112]"
1714134109827733285,"[127, 141, 170, 198, 213, 208, 201, 206, 227, 242, 239, 220, 191, 146, 95, 50, 9, -28, -50, -50, -43, -40, -33, -31, -31, -19, -2, 7, 7, 4, 4, 16, 33, 40, 38, 31, 21, 2, -11, -4, -2, -11, -11, -2, 4, 9, -16, -67, -74, -59, -67, -62, -55, -67, -62, -43, -33, -28, -26, -28, -26, -9, 2, 7, 4, 0, 4, 16, 19, 11, -2, -9, 4]"
1714134110388806711,"[14, 23, 43, 57, 55, 55, 47, 33, 35, 23, -7, 2, 28, 35, 31, 21, 93, 448, 980, 1136, 486, -285, -174, 177, 23, -71, 52, 35, -23, 11, 33, 28, 43, 50, 50, 71, 93, 103, 110, 103, 100, 131, 170, 186, 206, 225, 239, 263, 285, 285, 270, 242, 208, 162, 107, 50, 9, -23, -47, -45, -52, -71, -69, -59, -57, -45, -28, -33, -47, -47, -33, -14, -7]"
1714134110949905576,"[-7, -9, -7, -11, -19, -19, -33, -71, -79, -59, -50, -52, -52, -47, -47, -43, -33, -23, -28, -38, -43, -40, -28, -19, -21, -23, -16, -2, 19, 40, 43, 11, -38, -47, -16, -7, -19, -7, 7, 9, 14, 21, 119, 493, 985, 1008, 285, -354, -119, 186, 4, -67, 43, 26, -4, 40, 59, 52, 69, 79, 83, 105, 127, 136, 148, 160, 179, 210, 237, 249, 268, 294, 316]"
1714134111510973919,"[337, 342, 325, 316, 289, 227, 158, 95, 33, 0, -21, -45, -52, -43, -43, -59, -74, -62, -43, -33, -26, -23, -14, -9, -31, -47, -33, -21, -23, -9, 4, 4, 7, 11, 9, 14, 26, 16, 0, 2, 7, 9, 9, -7, -19, -11, -4, -11, -16, -14, -14, 4, 4, -26, -31, -19, -28, -28, -14, -4, 4, 9, -2, 2, 196, 680, 1121, 862, -28, -388, 33, 136, -86]"
1714134112072072780,"[-31, 55, -16, -16, 38, 33, 16, 11, 9, 35, 57, 69, 81, 91, 110, 136, 146, 146, 160, 186, 210, 234, 258, 266, 254, 232, 203, 158, 93, 38, -7, -45, -57, -62, -74, -76, -71, -71, -57, -40, -28, -11, -11, -19, -4, 16, 23, 26, 26, 23, 33, 47, 52, 47, 40, 40, 52, 55, 55, 57, 50, 50, 57, 67, 69, 64, 47, 38, 50, 64, 64, 64, 57]"
1714134112633161471,"[52, 64, 86, 105, 110, 91, 64, 59, 69, 57, 31, 16, 23, 31, 26, 4, 0, 227, 771, 1198, 846, -83, -371, 28, 33, -198, -127, -59, -119, -103, -64, -71, -62, -33, -26, -19, -2, 14, 33, 47, 64, 88, 110, 131, 165, 194, 208, 227, 239, 246, 246, 230, 194, 143, 81, 28, -9, -45, -64, -64, -64, -67, -62, -52, -40, -33, -28, -19, -11, -7, 2, 11, 11]"
1714134113194239984,"[19, 23, 19, 2, -19, -14, -2, -19, -35, -16, -4, -11, -4, 7, 2, 2, 2, -4, -4, 7, 11, 19, 26, 31, 33, 33, 35, 45, 59, 79, 93, 81, 57, 57, 62, 52, 50, 59, 67, 74, 76, 64, 62, 256, 805, 1334, 1102, 124, -345, 40, 143, -86, -31, 55, -9, 0, 52, 45, 43, 59, 59, 57, 64, 71, 79, 86, 100, 127, 148, 150, 143, 150, 170]"
1714134113755308327,"[184, 186, 184, 179, 148, 91, 35, -23, -81, -115, -146, -165, -158, -143, -134, -129, -127, -119, -100, -83, -74, -69, -64, -57, -43, -31, -23, -23, -26, -19, -7, 0, 7, 7, 0, 4, 16, 21, 19, 4, -14, -2, 16, 11, 21, 28, 14, 16, 35, 43, 38, 33, 31, 38, 47, 59, 67, 57, 47, 52, 59, 55, 31, 9, 28, 62, 71, 57, 40, 28, 19, 14, 11]"
1714134114316407192,"[21, 31, 31, 26, 31, 129, 496, 1008, 1095, 397, -321, -165, 155, -14, -103, 19, 11, -21, 26, 45, 26, 38, 62, 71, 79, 91, 103, 117, 124, 124, 124, 134, 160, 186, 210, 237, 254, 246, 232, 215, 186, 131, 62, 0, -52, -88, -105, -112, -115, -115, -112, -107, -93, -88, -110, -129, -105, -86, -83, -69, -52, -52, -59, -59, -47, -38, -35, -23, -14, -16, -7, 7, 4]"
1714134114877485709,"[0, 11, 21, 23, 26, 31, 35, 40, 40, 43, 40, 16, 16, 38, 52, 71, 81, 52, 33, 40, 40, 26, 16, 23, 35, 35, 33, 33, 59, 313, 860, 1222, 759, -150, -289, 139, 105, -76, 26, 71, 9, 28, 71, 67, 69, 88, 83, 64, 76, 100, 107, 115, 136, 150, 153, 155, 179, 213, 234, 249, 261, 258, 246, 220, 158, 81, 19, -43, -103, -124, -119, -117, -112]"
