time,ecg
1713891072406420000,"[18459, 18607, 19152, 19483, 19497, 19497, 19497, 19497, 19497, 19497, 19497, 19497, 19497, 19497, 19497, 19497, 19497, 19497, 19497, 19497, 19497, 19497, 19497, 19497, 19497, 19497, 19497, 19497, 19497, 19497, 19497, 19497, 19497, 19497, 19497, 19497, 19497, 19497, 19497, 19497, 19497, 19497, 19497, 19497, 19497, 19497, 19497, 19497, 19447, 19326, 19202, 19026, 18857, 18702, 18547, 18397, 18262, 18109, 17926, 17764, 17645, 17481, 17271, 17117, 16962, 16772, 16612, 16469, 16329, 16177, 16003, 15843, 15698]"
1713891072967457825,"[15534, 15379, 15203, 14991, 14827, 14701, 14551, 14429, 14284, 14034, 13839, 13718, 13549, 13501, 13732, 13994, 13822, 13082, 12468, 12485, 12463, 12130, 11978, 11956, 11804, 11606, 11459, 11328, 11199, 11085, 10971, 10856, 10721, 10578, 10468, 10366, 10259, 10154, 10033, 9919, 9833, 9742, 9647, 9552, 9431, 9307, 9200, 9066, 8914, 8764, 8597, 8443, 8312, 8174, 8059, 7967, 7845, 7733, 7655, 7571, 7483, 7395, 7291, 7183, 7081, 6991, 6912, 6826, 6724, 6634, 6546, 6457, 6374]"
1713891073528526168,"[6277, 6177, 6098, 6019, 5943, 5869, 5784, 5700, 5629, 5558, 5484, 5415, 5351, 5296, 5239, 5165, 5074, 4951, 4834, 4782, 4736, 4672, 4622, 4572, 4503, 4437, 4363, 4282, 4367, 4805, 5336, 5236, 4356, 3753, 3918, 3977, 3746, 3715, 3749, 3665, 3615, 3603, 3558, 3499, 3451, 3425, 3396, 3349, 3313, 3284, 3253, 3237, 3213, 3182, 3165, 3156, 3144, 3132, 3106, 3068, 3034, 2992, 2923, 2835, 2744, 2658, 2592, 2539, 2494, 2456, 2425, 2399, 2368]"
1713891074089563993,"[2335, 2311, 2273, 2230, 2206, 2187, 2151, 2132, 2123, 2092, 2044, 2011, 1992, 1961, 1925, 1890, 1868, 1856, 1832, 1804, 1780, 1749, 1721, 1711, 1692, 1661, 1642, 1625, 1604, 1597, 1594, 1561, 1513, 1478, 1449, 1418, 1399, 1382, 1363, 1354, 1347, 1328, 1297, 1247, 1247, 1549, 2166, 2520, 1999, 1121, 978, 1237, 1140, 1023, 1106, 1104, 1056, 1083, 1099, 1078, 1073, 1071, 1064, 1073, 1080, 1075, 1054, 1044, 1064, 1080, 1085, 1090, 1099]"
1713891074650632336,"[1116, 1133, 1135, 1104, 1064, 1033, 968, 895, 856, 821, 771, 745, 737, 733, 733, 737, 735, 723, 721, 726, 728, 723, 716, 706, 699, 690, 680, 685, 687, 676, 668, 668, 666, 666, 659, 645, 642, 647, 645, 642, 635, 621, 616, 618, 618, 614, 599, 587, 587, 604, 628, 633, 609, 571, 545, 540, 542, 523, 495, 478, 468, 461, 449, 423, 373, 437, 854, 1480, 1640, 911, 147, 211, 426]"
1713891075211670161,"[276, 238, 335, 309, 280, 326, 342, 335, 340, 328, 316, 338, 357, 364, 373, 378, 378, 392, 423, 449, 473, 495, 511, 526, 540, 535, 507, 457, 402, 361, 335, 318, 304, 288, 280, 292, 302, 302, 299, 304, 311, 314, 316, 326, 326, 321, 318, 318, 314, 297, 295, 299, 297, 297, 304, 307, 299, 299, 299, 304, 304, 285, 259, 261, 268, 264, 273, 278, 268, 271, 278, 276, 264]"
1713891075772738508,"[254, 264, 292, 302, 290, 273, 249, 226, 207, 195, 192, 185, 169, 164, 173, 154, 111, 173, 540, 1137, 1368, 756, 2, 14, 242, 114, 52, 140, 133, 109, 145, 161, 157, 169, 185, 190, 197, 211, 216, 214, 216, 233, 252, 273, 299, 326, 354, 373, 385, 402, 404, 376, 333, 278, 211, 159, 135, 128, 121, 119, 126, 133, 140, 145, 147, 149, 159, 169, 169, 169, 173, 169, 159]"
1713891076333776333,"[164, 171, 169, 169, 173, 176, 180, 183, 176, 154, 142, 154, 164, 159, 159, 161, 166, 176, 188, 185, 173, 176, 183, 178, 169, 169, 161, 154, 169, 188, 188, 171, 152, 123, 102, 109, 119, 111, 109, 111, 116, 126, 128, 102, 61, 211, 728, 1273, 1140, 297, -185, 45, 126, -40, 2, 78, 28, 26, 80, 92, 88, 102, 104, 97, 107, 133, 152, 157, 159, 180, 211, 238, 264]"
1713891076894844676,"[288, 299, 323, 347, 352, 340, 299, 238, 192, 164, 130, 109, 71, 33, 45, 66, 73, 85, 85, 73, 78, 85, 73, 71, 85, 90, 97, 107, 109, 114, 116, 116, 123, 130, 121, 133, 145, 135, 133, 142, 126, 92, 78, 76, 76, 88, 102, 116, 128, 126, 99, 69, 54, 47, 45, 49, 49, 57, 71, 73, 57, 9, 16, 318, 954, 1366, 897, 7, -157, 152, 85, -59, 35]"
1713891077455882501,"[73, 28, 59, 90, 76, 78, 102, 114, 123, 123, 114, 121, 135, 140, 161, 195, 218, 245, 280, 311, 333, 338, 333, 302, 235, 169, 116, 71, 49, 42, 33, 38, 35, 11, 16, 40, 45, 57, 71, 69, 76, 99, 104, 99, 104, 109, 121, 133, 126, 128, 140, 135, 130, 140, 145, 145, 149, 147, 145, 149, 140, 126, 123, 128, 128, 126, 121, 130, 145, 126, 95, 83, 80]"
1713891078016950844,"[73, 73, 73, 69, 61, 57, 49, 11, -45, 38, 504, 1216, 1416, 630, -183, -90, 133, -38, -76, 26, 9, 2, 49, 59, 52, 52, 52, 69, 92, 90, 95, 123, 152, 164, 178, 195, 216, 249, 283, 307, 321, 321, 307, 276, 221, 169, 121, 78, 57, 61, 69, 71, 76, 73, 73, 88, 97, 92, 97, 104, 114, 119, 116, 121, 133, 130, 126, 119, 109, 111, 123, 114, 109]"
1713891078577988669,"[123, 119, 102, 92, 71, 54, 66, 76, 64, 54, 49, 42, 47, 54, 59, 64, 49, 26, 19, 30, 33, 28, 40, 76, 107, 109, 92, 59, 38, 52, 71, 73, 76, 80, 78, 85, 80, 30, 92, 540, 1259, 1504, 740, -119, -61, 169, -11, -54, 69, 52, 26, 61, 61, 59, 90, 102, 97, 107, 109, 104, 116, 140, 154, 164, 190, 221, 254, 290, 316, 323, 328, 330, 307]"
1713891079139057016,"[261, 204, 145, 109, 92, 80, 78, 64, 40, 30, 23, 21, 35, 40, 33, 45, 66, 66, 45, 33, 42, 52, 57, 61, 61, 52, 40, 40, 40, 40, 42, 42, 45, 52, 57, 59, 57, 59, 61, 64, 73, 83, 78, 78, 83, 88, 92, 104, 97, 88, 85, 83, 92, 97, 90, 90, 97, 97, 116, 142, 154, 166, 152, 116, 107, 123, 128, 130, 133, 130, 135, 138, 121]"
1713891079700105015,"[85, 116, 414, 975, 1290, 783, -14, -95, 142, 11, -102, -9, 2, -35, 0, 35, 26, 26, 49, 64, 61, 80, 109, 116, 109, 126, 166, 183, 195, 230, 266, 283, 292, 302, 307, 290, 252, 190, 133, 92, 42, 4, 0, 7, -2, -21, -21, -11, -16, -23, -19, -16, -14, -4, 4, 0, 0, 7, 9, 14, 28, 30, 21, 21, 35, 42, 52, 38, -11, -16, 23, 30, 16]"
1713891080261163184,"[16, 11, 9, 30, 47, 52, 49, 28, 11, 30, 47, 47, 57, 57, 47, 66, 99, 121, 128, 107, 78, 83, 104, 104, 97, 97, 97, 97, 109, 107, 54, 71, 414, 1023, 1311, 756, -23, -78, 149, 42, -23, 76, 69, 23, 59, 90, 85, 88, 97, 107, 121, 135, 149, 161, 166, 169, 190, 223, 257, 288, 307, 309, 307, 316, 297, 249, 199, 130, 64, 33, 7, -33, -61]"
1713891080822231527,"[-45, -23, -42, -54, -45, -49, -47, -30, -7, 16, -2, -35, -40, -23, 30, 71, 45, 26, 40, 45, 38, 45, 78, 76, 42, 52, 73, 66, 66, 80, 78, 73, 90, 102, 92, 85, 92, 102, 104, 104, 107, 107, 109, 114, 116, 116, 114, 111, 114, 128, 157, 176, 166, 140, 97, 61, 61, 69, 61, 52, 57, 85, 99, 54, -4, 76, 497, 1149, 1333, 618, -109, -7, 209]"
1713891081383269352,"[28, -35, 69, 49, -7, 45, 109, 76, 30, 61, 85, 73, 88, 119, 114, 104, 128, 152, 159, 171, 192, 221, 242, 252, 261, 254, 216, 171, 111, 49, 14, -4, -26, -30, -23, -23, -21, -11, -2, 2, 2, 7, 19, 21, 23, 35, 30, 0, -2, 19, 23, 23, 35, 40, 38, 49, 61, 64, 64, 64, 64, 61, 71, 83, 80, 80, 88, 83, 85, 97, 97, 90, 90]"
1713891081944337695,"[92, 95, 102, 104, 97, 90, 80, 83, 95, 95, 80, 61, 49, 64, 76, 69, 59, 76, 111, 133, 133, 114, 90, 88, 102, 102, 102, 109, 99, 90, 104, 88, 38, 149, 595, 1180, 1280, 530, -190, -104, 59, -111, -126, -26, -52, -80, -71, -52, -16, -7, -4, 4, -2, 9, 38, 52, 73, 95, 104, 130, 169, 202, 240, 259, 249, 249, 271, 276, 249, 190, 111, 64, 54]"
1713891082505406042,"[45, 26, 0, -19, -23, -26, -19, -2, -23, -61, -57, -28, -21, -28, -23, -14, -9, -11, 4, 14, 2, 0, 7, 19, 33, 35, 35, 42, 40, 49, 61, 47, 26, 19, 23, 35, 49, 49, 45, 47, 52, 54, 73, 107, 116, 102, 97, 95, 88, 80, 76, 76, 88, 99, 102, 92, 64, 11, 11, 318, 959, 1366, 885, -28, -233, 42, -28, -154, -64, -33, -64, -33, -14]"
1713891083066443867,"[-28, -19, 11, 23, 28, 45, 57, 61, 73, 88, 107, 123, 123, 140, 178, 214, 240, 252, 242, 214, 166, 111, 64, 23, -21, -66, -73, -52, -45, -52, -40, -19, -16, -4, 9, 4, 9, 30, 35, 35, 47, 57, 69, 78, 64, 59, 80, 88, 85, 90, 88, 80, 73, 66, 76, 83, 83, 97, 95, 69, 83, 116, 114, 104, 111, 116, 116, 116, 121, 130, 130, 119, 121]"
1713891083627512210,"[130, 126, 128, 147, 164, 173, 176, 159, 126, 97, 80, 69, 59, 54, 61, 66, 47, 0, -38, 154, 704, 1194, 961, 133, -247, -21, 0, -147, -83, -26, -66, -47, -14, -23, -14, 19, 28, 26, 38, 54, 69, 90, 92, 80, 107, 147, 164, 183, 226, 247, 249, 259, 257, 235, 195, 135, 83, 64, 49, 30, 28, 26, 23, 40, 49, 49, 57, 64, 69, 76, 80, 88, 99]"
1713891084188550035,"[97, 85, 78, 85, 102, 95, 69, 61, 73, 80, 69, 38, 30, 49, 54, 54, 71, 78, 66, 76, 92, 92, 92, 97, 88, 88, 104, 109, 107, 111, 109, 107, 114, 111, 102, 97, 92, 90, 92, 109, 119, 99, 88, 114, 145, 164, 159, 128, 102, 90, 95, 104, 107, 102, 90, 80, 85, 78, 35, 42, 297, 821, 1175, 825, 80, -149, 49, 23, -78, -16, 2, -33, -7]"
1713891084749618378,"[28, 28, 26, 19, 0, 9, 38, 38, 28, 45, 57, 54, 78, 123, 145, 159, 190, 207, 221, 242, 245, 214, 171, 133, 92, 45, 21, 16, 11, 11, 21, 28, 26, 33, 45, 49, 64, 71, 64, 76, 92, 83, 83, 107, 104, 88, 102, 109, 99, 99, 109, 107, 99, 99, 109, 111, 104, 99, 90, 80, 97, 109, 97, 99, 111, 107, 102, 114, 104, 64, 61, 85, 80]"
1713891085310656203,"[73, 90, 97, 90, 88, 83, 59, 40, 49, 61, 52, 49, 49, 40, 33, 19, -14, -19, 14, 35, 38, 40, 19, -2, 4, 19, 21, 28, 38, 42, 35, 35, 33, 21, 176, 630, 1085, 956, 235, -178, 9, 73, -66, -35, 30, 0, -7, 19, 19, 19, 38, 52, 52, 54, 66, 80, 88, 97, 111, 128, 145, 154, 147, 161, 197, 207, 209, 216, 199, 166, 133, 85, 42]"
1713891085871724550,"[38, 28, 2, -16, -21, -11, -4, -19, -33, -28, -11, 0, 11, 19, 16, 14, 30, 45, 42, 45, 57, 59, 64, 78, 76, 61, 71, 78, 76, 90, 109, 126, 109, 71, 83, 102, 95, 99, 97, 78, 80, 85, 80, 85, 83, 71, 66, 61, 57, 66, 69, 52, 66, 97, 102, 83, 83, 92, 85, 71, 80, 99, 102, 92, 95, 111, 114, 107, 71, 54, 252, 685, 1023]"
1713891086432762375,"[835, 183, -154, 35, 90, -52, -26, 30, -16, -14, 40, 52, 40, 28, 26, 38, 57, 73, 80, 85, 99, 119, 145, 166, 183, 214, 238, 247, 273, 290, 271, 245, 218, 176, 138, 114, 90, 76, 66, 64, 80, 92, 92, 104, 97, 83, 90, 73, 54, 76, 97, 95, 92, 109, 116, 111, 126, 152, 161, 154, 147, 140, 135, 133, 128, 116, 99, 85, 80, 85, 88, 85, 80]"
1713891086993830718,"[76, 73, 80, 80, 73, 66, 57, 47, 47, 40, 21, 23, 26, 2, -19, 2, 38, 42, 30, 33, 23, -11, -30, -14, 0, -7, -2, 11, 16, 21, 7, -21, 71, 423, 861, 916, 378, -123, -52, 66, -71, -95, -11, -14, -21, 11, 28, 30, 33, 45, 57, 59, 66, 71, 71, 83, 99, 116, 140, 159, 173, 195, 216, 223, 230, 245, 240, 209, 169, 135, 104, 83, 69]"
1713891087554888891,"[59, 49, 49, 57, 61, 59, 57, 47, 40, 54, 69, 73, 61, 38, 38, 61, 66, 61, 64, 64, 61, 64, 71, 76, 76, 71, 71, 73, 80, 83, 69, 49, 21, 0, 7, 19, 14, 16, 21, 9, 0, -4, -23, -21, 7, 19, 19, 9, -14, -23, -11, -4, 0, 0, -7, -7, 4, 14, -2, -7, 178, 616, 954, 702, 64, -161, 33, 38, -66, -16, 23, -4, 4]"
1713891088115931803,"[30, 33, 38, 42, 28, 26, 47, 64, 76, 90, 83, 71, 95, 135, 161, 183, 197, 204, 218, 233, 233, 214, 178, 135, 80, 28, 16, 19, 2, -4, 9, 21, 26, 28, 28, 16, 14, 23, 33, 38, 30, 28, 40, 49, 47, 42, 38, 38, 47, 52, 49, 42, 38, 40, 47, 47, 47, 49, 49, 49, 54, 61, 59, 59, 57, 47, 38, 30, 14, 11, 33, 52, 49]"
1713891088676974711,"[42, 23, -7, -19, -11, -11, -9, -14, -35, -40, -21, -28, -64, 16, 378, 859, 945, 354, -230, -159, 16, -104, -133, -42, -45, -64, -42, -42, -42, -19, -2, 0, 16, 35, 45, 59, 76, 90, 111, 133, 152, 188, 216, 223, 238, 254, 247, 228, 199, 145, 90, 54, 30, 14, 2, -2, 4, 9, 0, -7, -7, 2, 16, 26, 28, 40, 47, 52, 61, 64, 69, 76, 76]"
1713891089238012540,"[78, 90, 88, 80, 73, 59, 54, 66, 69, 64, 49, 30, 30, 52, 73, 92, 109, 95, 61, 49, 64, 69, 64, 61, 69, 80, 80, 73, 47, 16, 161, 623, 1118, 1025, 276, -185, 14, 107, -47, -38, 16, -19, -28, -2, 0, -2, 7, 19, 30, 35, 33, 30, 42, 64, 85, 111, 135, 149, 171, 207, 230, 238, 240, 228, 192, 152, 111, 71, 35, 9, 0, 2, 9]"
1713891089799080883,"[19, 23, 14, -2, -4, 11, 26, 33, 28, 19, 28, 45, 52, 45, 23, 23, 47, 54, 52, 42, 26, 26, 42, 52, 52, 47, 40, 52, 66, 71, 76, 76, 64, 64, 76, 80, 88, 107, 121, 123, 116, 88, 66, 69, 71, 73, 80, 83, 88, 90, 80, 52, 38, 226, 728, 1202, 1014, 233, -152, 71, 109, -47, -7, 57, 21, 28, 61, 49, 38, 35, 28, 38, 49]"
1713891090360118708,"[40, 38, 59, 78, 92, 107, 119, 130, 149, 176, 190, 180, 166, 159, 128, 73, 21, -28, -64, -78, -88, -92, -90, -85, -85, -78, -64, -49, -45, -45, -42, -45, -49, -40, -30, -26, -16, -9, -2, 9, 16, 16, 23, 30, 38, 42, 47, 52, 57, 52, 59, 73, 71, 66, 78, 80, 76, 80, 85, 88, 88, 64, 35, 45, 69, 80, 90, 90, 76, 59, 54, 66, 76]"
1713891090921187051,"[73, 76, 80, 83, 88, 66, 28, 130, 528, 1030, 1087, 433, -157, -49, 104, -30, -45, 40, 23, 0, 30, 42, 30, 30, 35, 40, 52, 61, 71, 90, 97, 97, 119, 154, 180, 202, 216, 233, 252, 257, 252, 233, 192, 130, 83, 64, 45, 26, 23, 21, 2, 2, 7, -23, -61, -69, -59, -42, -28, -28, -28, -23, -16, -7, 7, 9, 7, 4, 11, 26, 30, 33, 35]"
1713891091482224876,"[28, 38, 52, 52, 49, 38, 21, 23, 38, 45, 47, 42, 38, 42, 42, 42, 49, 42, 40, 59, 76, 71, 69, 73, 73, 83, 92, 95, 97, 92, 88, 97, 107, 109, 104, 97, 97, 109, 116, 114, 97, 90, 116, 145, 147, 145, 116, 49, 26, 57, 64, 61, 71, 73, 76, 85, 76, 40, 64, 345, 883, 1194, 778, 52, -92, 109, 40, -45, 40, 59, 14, 33, 64]"
1713891092043293219,"[66, 78, 88, 83, 80, 66, 66, 95, 52, 33, 88, 54, 40, 142, 164, 107, 102, 133, 173, 188, 145, 76, 52, 47, 4, -4, 26, 0, -40, -19, -9, -45, -42, 38, 92, 35, -4, 35, 59, 26, -35, -57, -11, 49, 61, 47, 28, -11, -9, 45, 83, 73, 42, 21, 83, 135, 78, 64, 164, 266, 223, 121, 157, 228, 202, 126, 133, 202, 164, 88, 97, 107, 114]"
1713891092604361566,"[88, 28, 57, 57, -26, -30, 26, 0, -57, -49, -14, -11, -76, -76, -14, -11, 19, 35, -9, -14, -2, 0, 0, -47, -38, 19, -2, 7, 0, -102, 35, 661, 1318, 1185, 266, -330, -154, -9, -180, -204, -102, -121, -145, -90, -109, -152, -83, -76, -116, -28, 14, -35, -7, 49, 52, 47, 66, 140, 195, 161, 166, 218, 228, 211, 185, 126, 69, 28, -23, -66, -57, -45, -73]"
1713891093165429909,"[-76, -26, -30, -59, -14, -4, -45, -4, 26, -19, 9, 40, 11, 64, 128, 97, 47, 78, 133, 104, 69, 104, 123, 104, 92, 78, 92, 121, 78, 54, 102, 83, 57, 97, 116, 116, 83, 64, 92, 73, 95, 140, 121, 128, 166, 140, 111, 130, 138, 147, 142, 128, 145, 119, 47, 2, 149, 821, 1713, 1763, 640, -238, 14, 247, 11, 21, 159, 90, 78, 119, 23, -28, 35]"
1713891093726467734,"[23, -35, -9, 49, 66, 54, 54, 73, 71, 57, 107, 149, 119, 109, 147, 157, 128, 92, 19, -71, -121, -135, -83, -49, -171, -221, -88, -49, -88, -33, -21, -92, -97, -7, 14, -49, -33, 7, 26, 83, 121, 126, 123, 119, 145, 140, 102, 140, 169, 188, 288, 240, -2, -38, 142, 218, 185, 128, 95, 116, 147, 140, 95, 123, 183, 121, 99, 176, 126, 73, 166, 195, 147]"
1713891094287536077,"[159, 180, 140, 107, 152, 128, 38, 66, 126, 107, 69, 14, 21, 280, 695, 825, 423, -57, -78, 69, 21, -21, 9, 2, 19, 40, 7, 45, 88, 11, -14, 47, 64, 61, 71, 71, 85, 114, 107, 90, 123, 166, 180, 199, 226, 223, 197, 185, 164, 97, 38, 14, -23, -40, -2, 11, -7, 4, 26, 0, 4, 49, 38, 7, 30, 47, 7, -11, 9, 14, 4, 14, 26]"
1713891094848573902,"[-2, -16, 23, 23, -33, -45, -30, -47, -47, -19, -4, -28, -38, -11, 14, 9, -28, -28, 4, -4, 14, 78, 97, 97, 85, 47, 30, 42, 45, 45, 45, 61, 83, 78, 52, 23, -9, 83, 452, 911, 935, 359, -109, 19, 159, 21, -2, 78, 64, 47, 88, 116, 104, 90, 109, 140, 138, 119, 133, 157, 161, 190, 209, 211, 245, 278, 295, 326, 335, 307, 268, 233, 190]"
1713891095409642245,"[159, 121, 76, 47, 26, 7, 7, 11, 0, 9, 35, 35, 33, 49, 54, 52, 49, 49, 66, 88, 90, 76, 69, 92, 107, 107, 107, 88, 80, 111, 116, 104, 116, 109, 90, 109, 123, 104, 102, 116, 104, 95, 121, 135, 123, 128, 149, 157, 133, 104, 95, 97, 90, 80, 80, 90, 92, 83, 76, 59, 30, 180, 637, 1033, 799, 90, -207, -2, 16, -102, -57, -19, -38]"
1713891095970680074,"[-9, 4, -11, 0, 28, 35, 28, 35, 47, 57, 76, 99, 104, 88, 90, 128, 164, 188, 209, 209, 216, 226, 192, 140, 102, 66, 30, -2, 9, 49, 40, 14, 26, 38, 38, 30, 30, 54, 66, 40, 30, 57, 47, 42, 73, 69, 38, 52, 90, 88, 73, 78, 73, 42, 21, 38, 47, 38, 52, 64, 61, 73, 71, 45, 49, 73, 85, 102, 97, 73, 71, 59, 52]"
1713891096531748417,"[102, 133, 104, 83, 92, 78, 57, 73, 90, 76, 57, 49, 69, 71, 30, 26, 195, 611, 1040, 942, 264, -145, 26, 90, -35, -4, 49, 14, 16, 38, 26, 21, 28, 21, 19, 35, 54, 64, 54, 52, 66, 78, 80, 99, 130, 126, 107, 133, 157, 140, 116, 85, 52, 30, 16, -7, -30, -35, -21, -14, -21, -14, -4, -19, -11, 21, 23, 9, 14, 21, 21, 33, 54]"
1713891097092786242,"[64, 52, 52, 64, 61, 71, 83, 47, 16, 40, 57, 47, 52, 64, 59, 59, 71, 78, 71, 59, 57, 59, 47, 64, 88, 45, 14, 59, 97, 107, 107, 104, 102, 97, 90, 88, 88, 66, 52, 66, 78, 61, 33, 14, 88, 392, 835, 978, 518, -40, -45, 123, 26, -40, 14, 11, 2, 28, 38, 45, 54, 52, 61, 85, 90, 90, 99, 109, 114, 135, 164, 183, 195]"
1713891097653824067,"[211, 233, 242, 242, 240, 221, 180, 142, 109, 78, 38, -14, -66, -85, -66, -52, -57, -61, -61, -47, -23, -9, -14, -23, -11, 9, 19, 23, 28, 30, 16, -14, -14, 11, 14, 4, 9, 23, 33, 33, 35, 40, 40, 40, 35, 28, 23, 30, 35, 33, 35, 42, 52, 69, 83, 90, 99, 85, 52, 49, 66, 69, 69, 71, 71, 80, 88, 59, 35, 123, 433, 833, 906]"
1713891098214892410,"[421, -78, -35, 107, -4, -38, 42, 33, -14, 7, 40, 35, 38, 64, 73, 78, 90, 90, 95, 121, 140, 147, 154, 157, 159, 178, 202, 221, 228, 216, 185, 149, 111, 78, 47, 23, -7, -54, -69, -40, -35, -47, -35, -26, -23, -16, -2, -2, -2, 16, 16, 16, 38, 47, 42, 28, 28, 49, 59, 59, 59, 49, 57, 73, 69, 61, 64, 54, 47, 66, 80, 59, 52]"
1713891098775930235,"[69, 66, 61, 71, 73, 61, 47, 54, 85, 97, 92, 90, 76, 61, 78, 90, 47, 19, 47, 49, 30, 54, 57, 38, 166, 530, 875, 768, 199, -149, 11, 111, 0, -2, 52, 30, 23, 64, 83, 76, 64, 71, 102, 119, 119, 116, 116, 123, 147, 173, 188, 199, 214, 223, 247, 266, 264, 257, 230, 171, 119, 92, 69, 38, 19, 11, 4, 2, 2, -2, -9, -4, 9]"
1713891099336998582,"[16, 19, 14, 9, 23, 30, 30, 49, 47, 11, 2, 21, 23, 11, -4, -11, 2, -2, -21, -19, -14, -9, 2, 7, 4, 14, 21, 11, 16, 38, 52, 64, 73, 69, 59, 54, 52, 47, 38, 38, 52, 64, 61, 61, 52, 23, 38, 254, 702, 1009, 699, 23, -164, 71, 64, -57, -11, 28, -2, 16, 47, 38, 45, 64, 61, 69, 88, 92, 95, 107, 121, 140, 159]"
1713891099898036407,"[173, 176, 176, 197, 233, 238, 221, 202, 161, 95, 26, -47, -90, -85, -88, -104, -99, -85, -83, -80, -92, -102, -83, -76, -76, -73, -90, -66, -9, -4, -30, -11, 4, -11, -4, 14, 7, 0, 11, 19, 14, 9, 11, 16, 26, 21, 9, 11, 38, 66, 80, 85, 71, 45, 40, 52, 42, 38, 54, 57, 59, 66, 47, 9, 30, 268, 780, 1140, 761, 2, -164, 73, 11]"
1713891100459104750,"[-107, -38, -9, -30, 2, 16, 9, 30, 35, 9, 19, 57, 64, 66, 83, 95, 114, 145, 183, 204, 216, 242, 264, 271, 266, 238, 183, 126, 85, 57, 30, 11, 0, -9, -14, -14, 2, 9, -4, -2, 14, 7, -4, -9, -14, 0, 16, 16, 16, 7, 7, 30, 38, 23, 26, 33, 28, 33, 45, 40, 23, 2, -4, -2, -4, 2, 7, 7, 7, 14, 23, 26, 23]"
1713891101020142575,"[33, 57, 73, 80, 80, 47, 7, 9, 35, 40, 40, 47, 45, 38, 16, -14, 42, 376, 952, 1230, 699, -49, -119, 69, -40, -90, 11, 19, -7, 21, 23, 23, 59, 78, 69, 66, 85, 97, 97, 116, 135, 140, 161, 195, 211, 235, 264, 268, 264, 271, 264, 221, 159, 97, 40, 2, 0, 11, 11, 2, 2, 14, 19, 14, 21, 28, 30, 35, 38, 26, 16, 16, 14]"
1713891101581210918,"[9, 14, 23, 19, 7, 9, 19, 26, 21, 0, -9, 4, 14, 4, -7, -7, -2, -2, 0, 14, 21, 16, 19, 26, 28, 35, 40, 42, 45, 49, 57, 61, 66, 85, 111, 114, 104, 95, 83, 80, 85, 78, 80, 92, 90, 78, 52, -2, -28, 116, 540, 1030, 997, 288, -199, -26, 73, -71, -52, 16, -7, -4, 23, 28, 33, 45, 52, 59, 71, 83, 88, 97, 109]"
1713891102142248743,"[121, 140, 164, 185, 202, 209, 204, 202, 216, 209, 178, 135, 88, 49, 30, 9, -7, -7, -11, -21, -11, 0, 2, 2, 2, 0, 0, -9, -16, -14, -7, -2, 2, 4, 4, 4, 2, -4, -11, -23, -45, -47, -30, -26, -19, -7, -4, -7, -2, 7, 16, 19, 19, 21, 26, 35, 42, 45, 47, 45, 45, 59, 69, 66, 64, 64, 69, 78, 85, 76, 59, 61, 76]"
1713891102703317090,"[76, 78, 83, 64, 47, 59, 76, 71, 64, 61, 78, 107, 123, 123, 114, 92, 76, 85, 99, 97, 88, 88, 95, 99, 92, 64, 80, 333, 825, 1142, 773, 40, -145, 64, 19, -73, 2, 30, -2, 11, 38, 38, 40, 45, 45, 42, 54, 76, 88, 88, 80, 83, 97, 116, 138, 161, 176, 185, 199, 204, 180, 145, 104, 52, 9, -11, -26, -35, -47, -54, -52, -42, -30]"
1713891103264354915,"[-26, -30, -33, -21, -9, -4, 0, 2, -2, 2, 16, 19, 2, -14, -9, 4, 9, 16, 21, 14, 4, 7, 19, 30, 33, 11, -11, -2, 19, 19, 21, 26, 28, 38, 47, 47, 47, 49, 57, 64, 69, 73, 73, 71, 66, 73, 90, 97, 83, 61, 57, 52, 59, 85, 107, 109, 99, 73, 59, 66, 80, 90, 92, 92, 97, 99, 90, 64, 88, 357, 835, 1061, 626]"
1713891103825423258,"[-42, -135, 85, 23, -76, -19, -4, -40, -21, 7, -7, -16, 4, 16, 19, 16, 9, 7, 0, 4, 38, 64, 83, 119, 157, 180, 202, 216, 211, 204, 176, 114, 57, 19, -7, -19, -28, -38, -35, -23, -19, -16, -19, -28, -23, -14, -7, 7, 16, 19, 26, 40, 47, 49, 59, 64, 66, 69, 78, 78, 76, 80, 78, 73, 80, 92, 95, 85, 73, 83, 99, 97, 92]"
1713891104386461083,"[92, 83, 73, 88, 95, 90, 83, 61, 42, 45, 42, 47, 66, 73, 61, 52, 45, 49, 47, 42, 38, 38, 57, 71, 52, 16, 38, 288, 787, 1114, 749, 9, -192, 33, -2, -111, -47, -21, -38, -2, 16, -4, -4, 40, 47, 9, 26, 76, 78, 71, 111, 147, 149, 192, 249, 259, 261, 283, 295, 297, 285, 261, 223, 157, 95, 69, 47, 23, 28, 40, 45, 40, 35]"
1713891104947529426,"[54, 78, 64, 40, 38, 38, 42, 64, 80, 64, 35, 42, 59, 52, 52, 73, 64, 47, 61, 80, 78, 80, 83, 64, 57, 61, 59, 57, 45, 30, 45, 80, 104, 88, 64, 66, 73, 73, 78, 69, 66, 71, 59, 49, 45, 40, 49, 49, 66, 104, 78, 19, 26, 45, 33, 33, 33, 19, 28, 54, 23, 14, 245, 759, 1149, 835, 73, -176, 26, -9, -121, -42, 14]"
1713891105508567251,"[-11, -9, 9, 7, 9, 26, 40, 35, 16, 23, 52, 69, 83, 104, 128, 140, 149, 180, 214, 226, 240, 245, 223, 207, 180, 123, 73, 47, 21, 9, 14, 30, 35, 26, 30, 42, 38, 19, 33, 54, 47, 66, 92, 66, 52, 76, 73, 47, 47, 57, 49, 45, 57, 61, 47, 38, 57, 73, 71, 59, 59, 52, 23, -2, -4, 4, 2, 9, 30, 35, 14, -4, -4]"
1713891106069605080,"[2, -16, -45, -33, -23, -26, -9, -19, -28, -4, -19, -45, -38, -28, -4, 16, 2, -23, -23, 7, -9, -23, 226, 752, 1073, 704, 9, -149, 54, -11, -99, -9, -2, -35, 4, 30, 23, 38, 47, 30, 21, 40, 59, 69, 83, 104, 128, 152, 192, 216, 204, 223, 257, 240, 233, 238, 190, 107, 71, 57, -11, -54, -14, -7, -42, -35, -2, 16, 14, -4, -23, -21, 0]"
1713891106630673423,"[11, 9, 14, 30, 52, 49, 28, 30, 42, 57, 71, 47, 30, 47, 54, 59, 80, 78, 59, 83, 109, 76, 69, 99, 73, 38, 69, 92, 83, 73, 61, 33, 2, -23, -35, 0, 66, 66, 4, -11, 21, 33, 9, 145, 618, 1087, 902, 140, -223, -9, 28, -102, -52, 0, -38, -35, -11, 0, 21, 40, 40, 35, 33, 45, 69, 78, 85, 104, 128, 149, 183, 221, 261]"
1713891107191711248,"[283, 271, 261, 268, 238, 164, 104, 59, 14, -7, -2, -14, -28, -4, 7, -4, 7, 19, 11, 19, 33, 16, 9, 33, 28, 16, 38, 57, 59, 64, 66, 64, 54, 57, 69, 66, 59, 49, 30, 19, 28, 40, 42, 57, 73, 73, 64, 47, 45, 61, 69, 69, 73, 76, 88, 107, 104, 83, 73, 73, 73, 73, 88, 95, 78, 78, 85, 61, 11, 59, 421, 1025, 1273]"
1713891107752779591,"[687, -80, -123, 88, -14, -64, 21, -38, -121, -80, -52, -76, -80, -71, -61, -45, -30, -21, -9, 7, 21, 40, 66, 85, 119, 178, 199, 192, 204, 204, 164, 95, 33, 2, -9, -28, -45, -47, -49, -40, -28, -26, -19, -11, -21, -19, 0, 9, 2, -4, -2, 16, 38, 47, 42, 38, 40, 52, 54, 54, 61, 52, 38, 57, 73, 66, 59, 57, 64, 76, 76, 80, 80]"
1713891108313817416,"[57, 59, 80, 71, 47, 33, 28, 38, 52, 52, 69, 107, 102, 61, 47, 64, 69, 54, 49, 71, 90, 99, 92, 38, -33, 21, 335, 864, 1178, 745, -16, -142, 95, 26, -69, -7, 4, -11, 23, 30, 2, 2, 26, 30, 42, 54, 52, 45, 49, 61, 71, 90, 111, 116, 123, 169, 209, 202, 180, 161, 133, 95, 59, 21, -7, -28, -45, -47, -57, -61, -47, -35, -26]"
1713891108874855241,"[-11, 4, 9, -9, -21, 0, 30, 45, 28, -14, -14, 26, 28, 14, 14, 0, -30, -30, -19, -19, -7, 4, 2, 2, 11, 23, 19, -4, -16, 0, 21, 23, 19, 21, 26, 45, 73, 73, 52, 42, 35, 30, 61, 80, 57, 49, 76, 85, 71, 78, 111, 126, 92, 66, 80, 99, 99, 78, 42, 38, 69, 69, 26, 9, 178, 649, 1140, 1025, 266, -161, 42, 73, -83]"
1713891109435923588,"[-26, 19, -38, -23, 14, -2, -23, -23, -35, -66, -69, -45, -38, -28, -2, 16, 28, 45, 76, 116, 138, 157, 185, 188, 176, 157, 111, 45, -2, -23, -42, -49, -47, -47, -38, -35, -42, -30, -7, 7, 2, -11, -2, 21, 30, 35, 49, 57, 59, 57, 49, 49, 57, 69, 83, 102, 95, 54, 47, 71, 76, 85, 99, 90, 76, 80, 92, 102, 107, 102, 85, 83, 97]"
1713891109996961413,"[107, 107, 80, 66, 107, 114, 54, 21, 21, 21, 35, 57, 64, 54, 23, -52, -97, 92, 578, 1159, 1221, 416, -211, -19, 92, -92, -66, 23, -19, -33, 7, 35, 66, 59, 23, 33, 64, 61, 45, 49, 73, 80, 78, 85, 88, 102, 142, 173, 188, 197, 178, 138, 102, 59, 11, -38, -57, -21, 7, -21, -35, -16, 0, 19, 30, 26, 26, 21, 2, 4, 30, 42, 26]"
1713891110558029756,"[7, 9, 28, 42, 42, 35, 40, 45, 45, 54, 59, 49, 26, 19, 33, 45, 54, 59, 47, 47, 61, 64, 64, 69, 69, 59, 61, 73, 73, 85, 123, 121, 73, 69, 92, 85, 73, 78, 83, 97, 126, 135, 126, 107, 92, 95, 97, 90, 95, 99, 92, 92, 102, 85, 30, 109, 552, 1156, 1225, 476, -173, -66, 80, -78, -102, -16, -35, -54, -21, -21, -30, -11, 7]"
1713891111119067581,"[11, 11, 14, 16, 11, 14, 33, 57, 73, 83, 92, 116, 142, 164, 183, 183, 161, 123, 73, 38, 16, -11, -33, -33, -21, -19, -35, -45, -14, 9, 11, 23, 35, 30, 38, 54, 54, 59, 66, 69, 73, 76, 78, 85, 88, 80, 92, 109, 104, 102, 92, 73, 76, 80, 66, 42, 9, 2, 52, 71, 47, 71, 102, 83, 66, 78, 83, 80, 88, 99, 123, 119, 92]"
1713891111680135924,"[90, 107, 128, 152, 142, 126, 138, 138, 121, 119, 102, 78, 88, 97, 90, 92, 80, 42, 35, 207, 645, 1080, 930, 183, -221, -7, 47, -107, -83, -38, -69, -52, -21, -16, 2, 4, -19, -4, 35, 49, 42, 30, 40, 78, 107, 114, 99, 85, 116, 164, 204, 223, 197, 169, 138, 57, -2, -2, -26, -61, -45, -26, -30, -28, -26, -26, -19, -7, 4, 16, 23, 23, 35]"
1713891112241173749,"[52, 45, 35, 47, 45, 28, 38, 57, 47, 33, 26, 26, 47, 57, 47, 40, 57, 66, 40, 30, 66, 80, 64, 66, 88, 90, 76, 61, 78, 123, 142, 121, 104, 88, 66, 78, 90, 57, 16, 2, 7, 28, 28, -19, 28, 368, 875, 1009, 445, -173, -130, 73, -42, -114, -28, -11, -42, -26, -2, 7, 26, 47, 52, 42, 45, 73, 99, 99, 104, 121, 135, 159, 188]"
1713891112802211578,"[216, 240, 247, 242, 233, 204, 149, 88, 33, -4, -30, -38, -35, -38, -35, -30, -30, -16, -7, -2, -2, -2, 16, 33, 30, 35, 42, 33, 28, 40, 42, 19, 2, 9, 11, 9, 21, 16, 7, 21, 40, 40, 26, 30, 59, 49, 21, 38, 49, 35, 40, 49, 45, 64, 92, 95, 102, 104, 66, 49, 59, 59, 66, 66, 59, 59, 59, 54, 26, 45, 357, 959, 1244]"
1713891113363279921,"[690, -80, -130, 83, -42, -119, -21, -38, -80, -54, -59, -78, -49, -30, -45, -35, -7, 0, 0, 0, 11, 38, 61, 80, 80, 88, 130, 157, 140, 138, 157, 135, 73, 21, 0, -14, -26, -26, -21, -19, -14, 0, 2, 4, 21, 21, 16, 35, 57, 64, 57, 38, 40, 64, 76, 64, 52, 54, 69, 80, 85, 73, 59, 64, 80, 90, 90, 85, 69, 57, 80, 104, 85]"
1713891113924317746,"[69, 80, 88, 88, 85, 90, 107, 99, 85, 80, 54, 40, 52, 45, 45, 52, 30, 16, 23, 4, -42, 26, 399, 966, 1130, 509, -154, -95, 95, -33, -73, 16, 9, -14, 23, 47, 38, 33, 26, 23, 49, 61, 47, 45, 54, 66, 90, 102, 109, 126, 145, 161, 185, 199, 180, 147, 130, 90, 35, 16, 2, -28, -28, -14, -19, -16, -9, 0, 16, 21, 21, 40, 33]"
1713891114485386089,"[11, 35, 49, 38, 35, 35, 47, 57, 35, 7, -9, -9, 2, 9, 11, 28, 38, 33, 28, 30, 40, 45, 57, 59, 45, 52, 90, 85, 47, 52, 76, 80, 88, 80, 64, 57, 52, 59, 78, 97, 116, 116, 104, 99, 107, 111, 90, 66, 83, 109, 102, 97, 102, 71, 52, 247, 718, 1106, 871, 159, -123, 97, 111, -23, -2, 16, -14, 2, 30, 21, 2, 9, 21]"
1713891115046423914,"[19, 16, 14, 9, 11, 35, 64, 64, 54, 80, 107, 116, 152, 176, 171, 157, 123, 107, 90, 38, -4, -16, -19, -21, -26, -28, -28, -23, -7, 9, 19, 28, 38, 35, 47, 73, 66, 45, 49, 76, 78, 64, 80, 83, 78, 99, 92, 66, 88, 104, 76, 59, 78, 90, 88, 92, 92, 73, 61, 61, 59, 66, 83, 90, 78, 76, 116, 128, 76, 45, 54, 45, 42]"
1713891115607461739,"[64, 61, 59, 78, 66, 33, 11, 2, 95, 428, 840, 845, 295, -133, -11, 104, -30, -49, 19, 11, 21, 54, 38, 19, 47, 61, 64, 83, 90, 80, 85, 99, 114, 130, 138, 140, 159, 178, 171, 171, 176, 159, 140, 119, 78, 28, -14, -47, -57, -49, -59, -69, -42, -23, -28, 4, 26, -4, -11, 28, 38, 2, 0, 30, 26, 21, 49, 76, 66, 38, 42, 66, 73]"
1713891116168530086,"[85, 88, 47, 19, 45, 61, 45, 33, 19, 0, 11, 35, 40, 33, 33, 30, 42, 83, 107, 90, 76, 61, 45, 49, 66, 71, 64, 59, 64, 71, 59, 38, 26, 123, 461, 875, 873, 309, -123, -4, 97, -21, -19, 47, 28, 33, 71, 54, 45, 83, 78, 59, 88, 90, 47, 61, 102, 99, 104, 145, 173, 180, 190, 218, 240, 230, 199, 180, 142, 92, 57, 16, -35]"
1713891116729567911,"[-54, -52, -57, -54, -42, -47, -47, -38, -28, -23, -19, -14, -11, -19, -19, 2, 19, -2, -7, 21, 16, 9, 28, 35, 30, 33, 28, 40, 61, 42, 19, 33, 45, 40, 40, 54, 78, 88, 88, 83, 49, 30, 49, 64, 52, 40, 21, 4, 26, 40, 16, 26, 242, 680, 940, 590, -9, -116, 83, 49, -35, 14, 26, 4, 30, 45, 38, 57, 71, 59, 61, 85, 102]"
1713891117290605736,"[104, 111, 130, 147, 169, 199, 204, 188, 202, 226, 218, 223, 218, 166, 126, 109, 78, 45, 19, 2, 9, 26, 14, -23, -40, -23, -11, -14, -7, 4, 7, 4, 4, 19, 33, 28, 28, 28, 4, -16, -9, 4, 9, 14, 11, 2, 14, 30, 28, 30, 38, 40, 42, 40, 35, 52, 78, 78, 66, 57, 49, 45, 49, 59, 61, 64, 69, 54, 47, 40, 38, 211, 637]"
1713891117851674079,"[964, 714, 83, -142, 59, 69, -61, -26, 16, 0, 26, 38, 4, 21, 57, 54, 49, 61, 71, 80, 90, 111, 130, 138, 154, 178, 195, 214, 235, 242, 223, 188, 152, 123, 88, 35, 7, 14, 16, 16, 19, 9, 4, 2, -4, 9, 26, 19, 19, 19, 0, 4, 9, -7, -7, 9, 9, 9, 9, 0, -11, -11, 0, 26, 30, 16, 14, 19, 19, 28, 38, 38, 19]"
1713891118412711904,"[4, 45, 88, 61, 38, 52, 49, 30, 23, 16, -2, 2, 40, 52, 26, 9, 2, 33, 304, 816, 1073, 623, -73, -164, 54, -23, -102, -11, -4, -47, -14, 23, 14, 9, 28, 35, 30, 38, 47, 57, 66, 90, 119, 142, 176, 214, 235, 242, 245, 254, 249, 211, 159, 114, 71, 33, 19, 19, 4, -4, 16, 23, 9, 30, 38, 11, 23, 42, 11, 2, 40, 40, 23]"
1713891118973749729,"[35, 40, 38, 42, 11, -35, -42, -21, -11, -26, -28, -9, -9, -14, -7, 0, 7, 4, -14, 4, 26, -2, -28, -16, -7, -11, -4, 11, -4, -26, -4, 4, -28, 80, 535, 1090, 1061, 314, -199, -23, 80, -78, -64, 19, -7, -14, 30, 33, 19, 45, 69, 64, 69, 80, 90, 111, 133, 135, 119, 135, 192, 218, 221, 247, 254, 226, 218, 211, 164, 114, 59, 19, 21]"
1713891119534818076,"[35, 35, 35, 16, -11, 11, 61, 52, 7, 9, 30, 19, 23, 59, 61, 21, 11, 45, 54, 33, 26, 38, 42, 38, 47, 66, 66, 52, 52, 59, 40, 21, 35, 40, 28, 28, 40, 57, 52, 38, 11, -14, -2, 19, 9, 0, 4, 14, 21, 16, -21, -38, 102, 514, 1006, 971, 247, -240, -47, 64, -80, -61, 11, -28, -47, 9, 30, 4, 11, 40, 49, 52, 73]"
1713891120095855901,"[88, 85, 85, 90, 99, 116, 140, 164, 169, 176, 192, 197, 171, 123, 88, 49, 7, 0, -9, -30, -19, 2, -2, 2, 23, 30, 21, 30, 61, 64, 42, 47, 57, 54, 71, 83, 83, 80, 73, 69, 64, 47, 47, 71, 71, 49, 52, 69, 71, 59, 64, 99, 121, 95, 69, 59, 47, 38, 35, 35, 45, 40, 16, 21, 21, -45, -73, 116, 576, 1042, 916, 135, -311]"
1713891120656924244,"[-99, -28, -169, -121, -49, -76, -83, -54, -26, -26, -45, -30, -2, 4, 0, 16, 49, 66, 78, 114, 149, 164, 183, 218, 235, 228, 228, 211, 159, 104, 59, 11, -33, -57, -45, -28, -30, -30, -11, -7, -11, 2, 14, 16, 26, 28, 26, 40, 54, 57, 59, 64, 71, 76, 73, 76, 80, 78, 80, 83, 64, 38, 33, 42, 61, 85, 88, 71, 49, 33, 42, 64, 59]"
1713891121217962069,"[49, 69, 73, 59, 64, 30, -19, 169, 723, 1213, 947, 109, -223, 7, 4, -135, -80, -42, -80, -66, -33, -38, -42, -38, -33, -26, -7, 16, 33, 33, 40, 69, 102, 119, 147, 188, 202, 204, 218, 214, 183, 140, 83, 35, 16, 9, 4, 2, -2, 2, 19, 30, 28, 7, -16, -14, 4, 19, 23, 23, 28, 35, 40, 49, 64, 71, 66, 69, 76, 76, 76, 76, 73]"
1713891121779030412,"[76, 80, 88, 92, 85, 80, 88, 92, 90, 85, 66, 52, 61, 57, 38, 40, 49, 45, 38, 40, 64, 97, 102, 92, 88, 69, 47, 47, 45, 35, 38, 47, 47, 40, 19, -26, -61, 78, 547, 1092, 1056, 316, -195, -45, 40, -114, -121, -57, -69, -71, -45, -38, -40, -21, -2, 9, 19, 21, 26, 40, 64, 83, 90, 102, 130, 159, 180, 202, 209, 199, 195, 171, 111]"
1713891122340068237,"[57, 40, 33, -4, -30, -16, -14, -38, -47, -40, -38, -26, -9, -7, -4, 0, -7, 11, 38, 14, 4, 33, 30, 7, -2, 9, 35, 21, 0, 54, 76, 30, 35, 52, 28, 35, 69, 54, 21, 11, 9, 11, 21, 19, 23, 26, 11, 7, 14, 14, 21, 38, 45, 33, -4, -28, -9, 4, -16, -35, -28, -19, -2, -2, -26, -61, 33, 490, 1097, 1154, 397, -233, -95]"
1713891122901106066,"[57, -99, -111, -26, -61, -92, -52, -30, -38, -21, -2, 4, 19, 33, 47, 54, 71, 99, 133, 176, 209, 233, 252, 280, 304, 297, 259, 190, 123, 69, -7, -69, -69, -61, -88, -80, -47, -42, -47, -35, -23, -7, -14, -19, 11, 33, 30, 30, 45, 57, 47, 33, 45, 83, 99, 80, 73, 88, 85, 69, 61, 78, 85, 59, 38, 45, 47, 49, 69, 92, 99, 83, 54]"
1713891123462174409,"[33, 21, 11, 14, 21, 21, 21, 23, 21, 4, -38, -30, 285, 933, 1328, 830, -69, -223, 61, -38, -171, -59, -23, -76, -66, -57, -64, -40, -9, 0, 16, 30, 28, 52, 88, 107, 133, 166, 185, 214, 259, 288, 292, 292, 280, 240, 178, 116, 64, 19, -7, -9, -11, -9, 0, -11, -28, -23, 9, 54, 57, 38, 40, 38, 35, 57, 73, 64, 66, 88, 88, 78, 85]"
1713891124023212234,"[85, 83, 85, 85, 102, 123, 130, 154, 190, 190, 157, 119, 107, 109, 104, 102, 92, 49, 16, 16, 4, -14, -14, -28, -40, -26, -16, -21, -11, 0, -2, -4, 7, 2, 0, 30, 61, 59, 57, 54, 33, 21, 23, 19, 26, 42, 42, 47, 57, 14, -21, 192, 785, 1392, 1240, 292, -221, 35, 88, -97, -38, 35, -11, -4, 26, 26, 35, 47, 42, 54, 71, 78, 83]"
1713891124584250059,"[85, 83, 92, 114, 142, 166, 188, 211, 214, 195, 178, 171, 147, 97, 40, 9, -2, -16, -30, -35, -26, -14, -2, 4, 9, 9, 2, 7, 26, 30, 23, 23, 16, -7, -16, -14, -23, -21, -11, -7, -2, 4, 9, 7, 4, 11, 26, 30, 23, 23, 28, 33, 35, 40, 42, 38, 35, 45, 59, 64, 54, 49, 59, 66, 59, 42, 33, 38, 42, 42, 47, 49, 42]"
1713891125145318402,"[30, 30, 26, 0, -19, -38, -52, -28, 7, 26, 30, 4, -11, 0, 4, 2, 2, 4, 14, 26, 30, 16, -33, 28, 483, 1159, 1321, 573, -197, -133, 69, -78, -104, -4, -35, -66, -21, 2, 2, 19, 19, 4, 14, 40, 57, 59, 61, 71, 85, 102, 121, 152, 178, 195, 211, 223, 209, 169, 111, 47, 0, -26, -47, -64, -73, -78, -71, -73, -88, -90, -76, -69, -54]"
1713891125706356227,"[-35, -23, -21, -21, -16, -4, 7, 11, 9, -2, 2, 19, 33, 42, 42, 28, 23, 38, 49, 49, 49, 54, 59, 69, 78, 80, 73, 71, 80, 92, 95, 85, 76, 85, 111, 140, 152, 133, 104, 95, 99, 97, 99, 104, 99, 95, 97, 85, 45, 0, 133, 637, 1256, 1244, 402, -207, -21, 102, -76, -69, -11, -78, -88, -52, -52, -45, -26, -23, -14, 2, 14, 26, 42]"
1713891126267394056,"[57, 78, 107, 128, 147, 183, 211, 221, 230, 235, 223, 173, 92, 38, 9, -23, -38, -30, -33, -30, -16, -11, -9, 0, 7, 14, 23, 33, 40, 45, 47, 52, 64, 71, 66, 66, 76, 80, 71, 59, 59, 66, 76, 80, 76, 73, 73, 76, 83, 95, 97, 90, 90, 83, 59, 64, 83, 78, 71, 76, 83, 90, 97, 97, 95, 97, 107, 107, 107, 109, 99, 90, 99]"
1713891126828431881,"[97, 88, 80, 83, 119, 147, 145, 128, 99, 66, 54, 61, 66, 64, 57, 33, 23, 28, -28, 2, 414, 1085, 1340, 683, -154, -195, 26, -104, -161, -61, -66, -85, -66, -80, -71, -35, -33, -47, -42, -21, -14, -9, 16, 30, 26, 23, 47, 107, 154, 152, 133, 138, 164, 180, 135, 9, -104, -95, -21, -14, -52, -116, -204, -164, -69, -71, -83, -66, -73, -64, -33, -2, 54]"
1713891127389500224,"[104, 85, 54, 109, 176, 159, 133, 173, 214, 190, 142, 133, 218, 326, 245, 83, 102, 240, 238, 111, 80, 97, 64, 57, 38, 4, 52, 78, 42, 52, 45, 9, 33, 54, 45, 33, 7, 4, 28, 42, 52, 54, 19, -16, 76, 416, 904, 1083, 583, -107, -176, 47, -23, -88, 9, 9, -7, 90, 123, 90, 99, 83, 66, 147, 245, 240, 173, 126, 245, 476, 357, 54, 169]"
1713891127950538049,"[409, 383, 307, 280, 285, 318, 264, 109, 80, 161, 85, -33, -38, -7, 21, 2, -64, -19, 145, 114, -76, -30, 49, 4, 66, 99, 57, 80, 97, 102, 130, 116, 83, 88, 107, 109, 95, 95, 109, 128, 149, 104, 59, 135, 199, 123, 49, 97, 147, 66, 23, 126, 121, 64, 121, 147, 85, 19, 33, 66, 33, -4, 28, 71, 73, 54, 45, 45, 4, 66, 490, 990, 866]"
1713891128511575874,"[166, -197, -4, 73, -49, -35, 30, 23, 23, 76, 47, -64, -16, 116, 104, 54, 88, 116, 109, 116, 107, 114, 178, 190, 147, 133, 192, 218, 149, 145, 180, 133, 61, 35, 19, -14, -52, -45, 0, 16, 0, -4, 7, 16, 14, 21, 38, 69, 83, 9, -26, 54, 102, 69, 35, 23, 33, 40, 26, 23, 16, 2, 21, 16, -26, -21, 0, -19, -40, -33, -19, -4, 9]"
1713891129072644217,"[0, -33, -45, -49, -78, -99, -90, -76, -66, -73, -92, -99, -121, -95, 188, 687, 916, 457, -233, -314, -59, -123, -233, -138, -109, -152, -128, -164, -183, -66, -40, -111, -73, -9, -21, -2, 42, 102, 209, 254, 216, 190, 254, 330, 347, 352, 349, 328, 309, 271, 214, 176, 152, 121, 90, 69, 66, 83, 90, 61, 40, 73, 99, 66, 42, 66, 80, 76, 78, 78, 76, 83, 90]"
1713891129633682046,"[90, 83, 54, 40, 64, 92, 126, 130, 73, 59, 64, 30, 30, 71, 99, 99, 92, 85, 66, 49, 73, 99, 99, 92, 85, 99, 114, 99, 107, 104, 102, 352, 833, 1066, 683, 45, -99, 92, 45, -57, 9, 47, 16, 26, 52, 47, 35, 38, 52, 71, 69, 54, 66, 88, 111, 140, 152, 171, 207, 218, 216, 261, 290, 261, 228, 190, 138, 102, 76, 42, 9, 0, 0]"
1713891130194719871,"[-14, -11, -4, -38, -71, -69, -64, -76, -95, -109, -99, -104, -104, -61, -35, -52, -83, -71, -49, -64, -61, -40, -47, -40, -9, -16, -38, -21, 2, -7, -61, -57, 33, 76, 28, -21, -28, -28, -54, -71, -49, -28, -19, 2, -4, -49, -107, -71, 249, 818, 1142, 723, -66, -249, 16, -45, -197, -107, -28, -23, 54, 109, 28, -54, 4, 95, 80, 42, 76, 66, 71, 147, 102]"
1713891130755788214,"[83, 209, 204, 161, 266, 335, 321, 328, 318, 268, 214, 166, 164, 188, 166, 183, 223, 73, -71, 85, 166, 33, 64, 145, 57, 35, 138, 133, 78, 104, 95, 7, 7, 64, 71, 66, 92, 92, 19, -69, -95, 11, 78, -9, -21, 61, 45, -7, 35, 71, 61, 59, 47, 9, 2, 90, 126, -4, -83, -14, 57, 30, -76, -121, -21, 209, 571, 852, 623, 21, -178, 23, 4]"
1713891131316826039,"[-107, -42, -7, -21, -19, -11, 9, 26, 59, 78, 26, 7, 14, -61, -54, 130, 223, 154, 154, 216, 218, 214, 226, 204, 180, 176, 183, 192, 109, -38, -40, 47, 54, -38, -140, -69, 30, -42, -90, 7, 54, -23, -80, -64, -33, -9, -23, -47, -19, 7, 14, 71, 16, -188, -199, -80, -85, -97, -102, -188, -230, -85, 26, -64, -57, 28, -69, -109, -85, -264, -283, -38, -69]"
1713891131877894382,"[-226, -126, -66, -166, -164, -209, -273, 109, 747, 1014, 564, -197, -335, -73, -145, -252, -161, -133, -102, -2, -26, -83, -21, 21, 30, 73, 83, 35, 49, 140, 161, 152, 197, 238, 249, 273, 285, 273, 285, 299, 249, 161, 102, 78, 26, -104, -202, -257, -423, -559, -576, -647, -704, -659, -604, -530, -440, -368, -321, -311, -254, -209, -297, -304, -88, 85, 57, 19, 126, 226, 119, 30, 204]"
1713891132438932207,"[261, 114, 185, 297, 154, 104, 228, 247, 233, 273, 323, 299, 240, 230, 216, 195, 261, 283, 152, 128, 226, 218, 164, 116, 157, 585, 1183, 1199, 502, -111, -102, 38, -21, -38, -7, -11, -23, -30, -35, -52, -57, -47, -99, -107, -28, 4, 28, 28, -45, -4, 99, 95, 126, 161, 88, 114, 209, 157, 71, 59, 49, 21, -30, -59, -95, -154, -95, -35, -130, -154, -99, -123, -104]"
1713891132999970036,"[-45, -71, -107, -64, -23, -47, -64, -90, -107, -30, 4, -92, -102, -33, -99, -107, -42, -52, -28, -47, -38, 42, 33, 26, 69, 28, -4, 23, -19, -73, -35, 21, 19, -40, -30, 38, -33, -2, 330, 661, 702, 352, -85, -157, -30, -14, -42, -49, -42, -30, -23, 4, -26, -138, -126, 26, 40, -92, -80, 26, 30, 4, 16, 49, 99, 109, 114, 157, 157, 169, 202, 109, 42]"
1713891133561038379,"[109, 85, -23, -28, 30, 33, -33, -64, 4, 26, -54, -71, 0, 14, -28, -14, 16, 2, -16, -16, 4, 30, 45, 26, -54, -92, -9, 40, -11, -21, 21, 7, -7, 23, 61, 64, 33, 47, 66, 42, 19, 28, 57, 71, 54, 26, 42, 83, 59, 2, 16, 223, 654, 923, 566, -88, -247, -23, -30, -138, -85, -66, -102, -61, -28, -52, -57, -28, -23, -28, 11, 11, -21]"
1713891134122076204,"[57, 52, -40, 16, 130, 188, 185, 128, 133, 207, 140, 38, 121, 130, -16, -16, 61, -4, -66, -19, 0, -21, 2, 59, 107, 97, 11, -23, 40, 111, 104, 33, 73, 154, 47, -35, 73, 119, 66, 69, 90, 104, 102, 97, 130, 130, 97, 128, 173, 126, 11, 49, 152, 66, 35, 111, 80, 80, 102, 26, 95, 452, 837, 892, 476, 11, -2, 133, 26, -16, 85, 66, 61]"
1713891134683114029,"[145, 126, 2, -4, 83, 66, 45, 85, 85, 54, 47, 38, 23, 66, 102, 76, 95, 159, 145, 111, 138, 154, 114, 45, 16, 28, 11, 2, 42, 11, -49, -11, 47, 54, 38, 28, 42, 57, 57, 64, 78, 64, 28, 54, 83, 49, 69, 121, 78, 28, 66, 97, 78, 80, 95, 104, 128, 99, 21, 14, 23, 2, 0, 7, 26, 23, -16, -45, -64, 7, 316, 733, 795]"
1713891135244182372,"[259, -268, -195, -49, -195, -211, -99, -107, -121, -76, -73, -83, -45, -47, -78, -42, 14, 9, -19, 30, 99, 83, 54, 78, 107, 133, 164, 171, 154, 138, 114, 76, 28, -23, -54, -47, -21, -14, -30, -14, 21, 16, 11, 35, 40, 26, 42, 61, 52, 47, 49, 45, 47, 38, 28, 35, 38, 28, 35, 47, 47, 40, 30, 42, 83, 71, -9, -21, 61, 80, 28, 23, 33]"
1713891135805220197,"[-23, 73, 623, 1180, 899, 30, -238, 28, 26, -45, 64, 104, 64, 78, 109, 107, 140, 276, 354, 197, 23, 159, 345, 352, 442, 583, 599, 521, 433, 514, 659, 597, 495, 511, 471, 342, 254, 199, 138, 147, 218, 47, -185, -99, 0, -54, -92, -119, -128, -102, -123, -138, -88, -97, -95, -52, -52, -52, -40, -45, -83, -66, 4, 28, 26, -23, -42, 61, 42, -16, 28, -42, -80]"
1713891136366258026,"[4, -9, -64, -35, -11, -7, 21, 9, -19, 166, 606, 935, 766, 216, -176, -180, -57, 80, 135, -9, -52, 111, 149, 95, 161, 166, 166, 259, 247, 207, 228, 245, 261, 226, 152, 183, 218, 185, 259, 318, 216, 116, 88, 80, 49, 38, 47, 26, 30, 30, -19, -26, -26, -69, -45, 2, -19, 28, 178, 128, -92, -90, 11, -38, -30, 33, 2, -7, -85, -185, -38, 61, -47]"
1713891136927326369,"[-52, -26, -33, 35, -11, -99, -45, -57, -85, -26, -21, -64, -80, -69, -78, -109, 2, 345, 673, 576, 69, -211, -69, -7, -102, -71, -19, -42, -42, -21, -33, -38, -21, -2, 28, 47, 30, 11, 30, 69, 80, 83, 109, 133, 116, 104, 123, 116, 99, 102, 80, 42, 26, 11, -14, -30, -30, -26, -30, -14, 2, -28, -47, -26, -35, -59, -33, -19, -42, -49, -38, -40, -42]"
1713891137488364194,"[-47, -57, -52, -40, -47, -61, -45, -30, -52, -73, -71, -69, -71, -47, -21, -54, -80, -49, -42, -49, -57, -64, 123, 583, 923, 687, 52, -207, -2, 38, -69, -28, 28, 11, 21, 42, 38, 26, 28, 35, 45, 64, 85, 97, 107, 128, 164, 192, 199, 218, 235, 228, 233, 247, 240, 195, 145, 107, 78, 52, 35, 26, 23, 35, 59, 52, 40, 40, 30, 38, 49, 49, 73]"
1713891138049432537,"[95, 119, 97, 26, 54, 133, 40, -61, 59, 138, 78, 59, 42, 49, 133, 185, 173, 159, 149, 142, 140, 140, 142, 111, 88, 121, 140, 126, 114, 85, 80, 302, 773, 1075, 676, -73, -211, 45, 23, -19, 35, -42, -83, 7, 26, -4, 45, 76, 45, 59, 92, 80, 109, 164, 152, 154, 188, 190, 211, 254, 304, 338, 285, 209, 195, 197, 154, 121, 99, 23, 2, 104, 104]"
1713891138610470362,"[-14, -2, 69, 52, 19, 38, 104, 166, 116, 30, 69, 135, 123, 121, 126, 90, 78, 104, 99, 97, 104, 80, 69, 71, 83, 76, 38, 57, 35, -33, 0, 45, 19, -30, -40, -14, -19, -26, 161, 547, 787, 590, 49, -195, 4, 42, -66, -7, 38, -2, 28, 66, 40, 19, 19, 49, 76, 59, 59, 102, 133, 104, 90, 154, 211, 197, 145, 161, 221, 190, 152, 173, 197]"
1713891139171538705,"[142, 111, 199, 114, -71, 16, 119, 33, 19, 104, 76, 26, 92, 152, 119, 102, 85, -107, -126, 164, 178, 0, 66, 171, 61, -38, 49, 126, 76, 95, 154, 111, 83, 147, 145, 33, -26, 9, 121, 109, -59, -2, 92, -16, -21, 38, 66, 328, 733, 764, 249, -207, -126, 49, -66, -114, 4, -7, -85, -52, 4, -11, -23, -7, -19, -30, -45, 16, 95, -9, -9, 152, 95]"
1713891139732576534,"[35, 202, 204, 54, 90, 142, 142, 140, -7, -109, -30, -59, -111, -7, -47, -97, -33, -159, -157, 28, -90, -176, 14, 26, -95, -52, 2, -21, 9, 14, -52, -52, -16, -33, -49, -33, -23, -9, 23, 66, 123, 78, -71, -76, 16, 26, 14, -28, -59, -49, -111, -114, -16, -59, -90, 85, 364, 656, 590, 35, -264, -57, 23, -147, -169, 16, 57, -104, -119, 21, 57, -35, -66]"
1713891140293614359,"[14, 26, -28, 9, 40, -4, 30, 145, 173, 69, 0, 59, 169, 230, 173, 45, 30, 88, 33, -45, -14, -14, -52, -11, -16, -78, -69, -26, -14, -30, -2, 7, -61, -38, 14, -16, -26, -2, 4, 35, 76, 35, -9, 40, 69, 9, 11, 69, 47, 33, 40, -4, -19, -19, -80, -97, -64, -104, -90, -45, -111, -80, 57, 211, 521, 706, 354, -185, -240, -33, -80, -161, -61]"
1713891140854652184,"[-38, -119, -88, -30, -76, -92, -40, -54, -85, -30, 45, 16, -66, -54, 28, 107, 149, 130, 128, 157, 183, 226, 126, -49, 11, 69, -26, -26, -61, -140, -42, 90, 64, -140, -157, 116, 109, -66, 9, 104, 78, 73, 30, -40, 26, 45, -59, -28, 80, 42, -107, -52, 149, 140, 2, -11, 38, -23, -76, -64, -119, -114, -7, -69, -178, -109, -119, -192, -88, 180, 533, 718, 321]"
1713891141415690009,"[-273, -283, -88, -169, -192, -69, -16, -73, -130, -176, -123, 2, -47, -57, 49, -19, -52, 52, 64, 40, 7, -14, 102, 161, 104, 107, 159, 111, -9, 26, 92, 33, -26, -61, -90, -99, -80, -61, -66, -16, 92, 52, -40, 97, 192, -47, -159, 149, 202, -88, -28, 152, 52, -21, 21, 35, 71, 123, 147, 183, 138, 23, 16, -16, -69, 19, 52, -40, -47, 0, -66, -111, -16]"
1713891141976758352,"[235, 578, 609, 192, -192, -192, -80, -97, -104, -47, -23, 2, 14, -47, -73, -57, -61, -19, 54, 4, -28, 121, 161, 7, 28, 154, 121, 114, 183, 178, 192, 240, 180, 99, 97, 57, 9, 26, 26, -28, -61, 0, 66, -23, -126, -138, -164, -90, 30, -52, -104, 9, 9, -61, -33, -16, -33, 2, 19, 2, 2, 76, 111, -71, -171, -2, 88, 14, -30, -11, 19, 28, -7]"
1713891142537796177,"[-47, -40, 19, 254, 635, 742, 302, -190, -214, -88, -126, -130, -88, -111, -111, -59, -54, -76, -59, -42, -45, -57, -66, -54, -45, -42, -23, 0, 4, 19, 30, 21, 35, 54, 42, 16, -33, -119, -171, -173, -185, -202, -209, -202, -180, -185, -195, -159, -138, -147, -145, -130, -107, -88, -69, -49, -52, -40, -9, 9, 14, 40, 59, 52, 83, 90, 69, 92, 78, 14, 59, 97, 26]"
1713891143098834006,"[66, 164, 121, 78, 271, 723, 1137, 1035, 342, -97, 97, 188, 21, 11, 83, 52, 11, 52, 78, 54, 111, 152, 40, 21, 116, 116, 104, 166, 223, 140, 33, 176, 271, 149, 161, 240, 180, 119, 121, 97, 61, 59, 45, -21, -28, 49, 38, -38, -9, 30, 26, 71, 85, 57, 66, 102, 116, 114, 109, 123, 123, 61, 35, 80, 145, 188, 147, 95, 133, 119, 47, 83, 142]"
1713891143659871831,"[128, 111, 109, 104, 114, 128, 171, 357, 733, 885, 471, -38, -152, -49, 16, 9, -42, -33, -7, -38, -59, -61, -47, -19, -19, -38, -71, -128, -126, 11, 130, 88, 40, 99, 154, 149, 123, 133, 157, 169, 157, 109, 76, 59, 11, -11, 30, 35, 14, 40, 71, 23, -52, -2, 28, -30, -2, 40, 0, -19, 19, 35, 26, 38, 52, 30, 35, 116, 114, 11, 23, 140, 116]"
1713891144220940174,"[-7, 14, 73, 35, 33, 88, 92, 59, 52, 57, 97, 333, 709, 814, 376, -104, -59, 66, -92, -152, -88, -57, -26, -30, -76, -45, 28, -19, -69, -11, 16, -4, 0, 28, 61, 76, 73, 114, 147, 104, 78, 166, 216, 154, 97, 76, 64, 59, 45, 16, 9, 26, 42, 49, 59, 71, 80, 54, 23, 61, 121, 92, 28, 45, 85, 76, 69, 90, 104, 102, 140, 116, 30]"
1713891144781977999,"[80, 166, 140, 69, 28, 61, 88, 83, 97, 57, 19, 66, 76, 26, 35, 192, 499, 811, 752, 188, -214, -35, 109, 2, -14, 35, 38, 21, 33, 42, 21, 35, 69, 49, 69, 121, 90, 16, -2, 49, 107, 119, 114, 157, 169, 159, 188, 142, 107, 147, 111, 45, 52, 54, 28, 19, 26, 40, 49, 45, 47, 59, 57, 47, 47, 40, 19, -7, -19, -2, -9, -40, -38]"
1713891145343015824,"[-26, -38, -47, -64, -73, -40, -42, -119, -123, -85, -102, -107, -102, -119, -107, -66, -47, -59, -78, -52, 123, 504, 859, 687, 23, -299, -71, 9, -92, -42, -19, -85, -66, -16, -16, -21, 2, 7, 7, 52, 80, 61, 38, 26, 52, 104, 130, 121, 119, 142, 159, 147, 135, 121, 88, 40, 0, -16, -2, 0, -26, 9, 69, 42, 19, 38, 52, 95, 109, 45, 33, 80, 61]"
1713891145904053649,"[30, 85, 130, 76, 35, 78, 119, 135, 145, 128, 114, 111, 78, 57, 76, 80, 76, 78, 80, 80, 78, 47, 9, 123, 511, 975, 994, 368, -138, -7, 111, -21, 2, 80, 33, 19, 61, 64, 61, 73, 69, 78, 90, 73, 76, 104, 102, 92, 128, 142, 116, 128, 142, 142, 157, 152, 119, 80, 42, 33, 35, 7, -19, -19, -2, 11, 9, 16, 23, 33, 54, 52, 52]"
1713891146465091478,"[76, 80, 64, 69, 80, 83, 52, 9, 21, 64, 61, 40, 49, 85, 114, 116, 130, 149, 130, 107, 128, 109, 52, 92, 154, 140, 126, 92, 80, 340, 849, 1064, 580, -23, -11, 199, 104, 26, 83, 85, 83, 126, 138, 102, 73, 99, 142, 142, 138, 164, 185, 190, 197, 216, 247, 280, 273, 195, 126, 211, 316, 266, 164, 85, 69, 104, 76, 47, 66, 47, 16, 28, 57]"
1713891147026129303,"[42, 21, 47, 78, 78, 66, 66, 80, 83, 83, 95, 147, 178, 107, 40, 26, 14, 66, 152, 164, 123, 104, 95, 54, 38, 66, 73, 52, 61, 92, 80, 42, 42, 73, 218, 552, 856, 702, 88, -249, -30, 99, -33, -35, 42, 30, 19, 33, 19, 9, 9, 21, 42, 73, 135, 116, 0, -16, 85, 142, 107, 78, 116, 152, 147, 147, 154, 152, 119, 80, 73, 61, 30]"
1713891147587197646,"[19, 19, 4, 9, 40, 47, 35, 16, 11, 28, 40, 42, 42, 33, 9, 9, 33, 42, 33, 28, 23, 23, 38, 52, 61, 76, 71, 47, 35, 35, 23, 16, 30, 38, 30, 35, 35, 9, 45, 261, 628, 852, 528, -99, -218, 40, 28, -66, 4, 38, -19, -26, 4, -33, -26, 11, -9, 26, 52, 19, 49, 66, 71, 145, 180, 157, 178, 223, 228, 228, 247, 245, 223]"
1713891148148235471,"[178, 119, 104, 114, 95, 71, 66, 76, 107, 109, 80, 76, 85, 83, 83, 104, 104, 78, 85, 133, 121, 57, 49, 57, 61, 80, 92, 88, 83, 95, 123, 142, 126, 78, 42, 42, 59, 69, 54, 40, 85, 130, 71, 11, 97, 388, 759, 842, 447, -52, -97, 71, -2, -88, 28, 99, 11, -19, 42, 52, 26, 30, 61, 85, 61, 38, 61, 107, 147, 152, 142, 183, 230]"
1713891148709273296,"[226, 261, 285, 204, 199, 268, 259, 204, 188, 169, 161, 261, 323, 297, 326, 378, 357, 292, 264, 259, 221, 95, -9, 80, 154, 54, -28, -54, -69, -14, -11, -88, -2, 92, 23, -104, -171, -78, 40, 57, 26, -11, -14, -11, -33, -23, -23, -4, 128, 76, -147, 23, 264, 216, 545, 875, 349, -178, -45, -19, -164, -26, 154, 107, -7, 57, 116, 9, 21, 78, -35, -28, 190]"
1713891149270311121,"[223, 35, -76, -69, 126, 371, 326, 159, 2, -76, 111, 166, 33, 97, 214, 169, 35, -19, 11, 28, 4, -54, -99, 4, 61, -183, -247, 80, 149, -97, -80, 102, -4, -28, 171, 140, -2, -28, 11, 61, 61, 52, 57, 7, 9, 173, 261, 107, -28, 78, 88, -159, -102, 218, 209, 9, 2, 69, 59, 188, 559, 809, 747, 297, -178, -23, 254, 7, -192, -23, 38, 14, 40]"
1713891149831348950,"[-114, -92, 116, 54, 9, 61, -7, -23, 30, 69, 135, 138, 23, -30, 71, 178, 180, 92, 47, 123, 90, -7, 28, 40, -19, -19, 7, -23, -40, 54, 97, 40, 64, 59, 4, 71, 116, 80, 102, 128, 88, 76, 99, 90, 83, 83, 88, 138, 152, 104, 104, 142, 133, 92, 61, 38, 14, -14, 23, 80, 30, -19, 2, 26, 90, 316, 647, 656, 128, -316, -169, 61, -28]"
1713891150392386775,"[-147, -149, -140, -142, -159, -192, -183, -145, -149, -173, -149, -116, -157, -202, -140, -45, -28, -14, 26, 33, 59, 90, 40, 28, 71, 7, -52, -38, -38, -38, -59, -80, -38, 2, -7, -30, -42, -11, 66, 33, -49, 57, 119, 35, 78, 135, 90, 109, 135, 111, 123, 154, 164, 169, 169, 166, 157, 116, 88, 114, 119, 92, 111, 121, 61, 85, 142, 128, 335, 830, 1102, 692, -54]"
1713891150953424600,"[-226, 52, 23, -107, -38, -14, -78, -69, -47, -90, -80, -7, -7, -49, -14, 54, 69, 49, 52, 76, 109, 147, 164, 178, 216, 216, 173, 154, 135, 102, 61, -2, -30, -4, -4, -11, 4, 9, 19, 26, 9, 21, 49, 40, 49, 80, 64, 54, 85, 102, 97, 80, 42, 42, 88, 102, 126, 159, 135, 130, 133, 92, 49, -11, -30, 47, 71, 16, 23, 85, 88, 28, 4]"
1713891151514462425,"[64, 140, 76, 71, 557, 1137, 1028, 285, -173, 23, 164, -14, -7, 152, 59, -47, 0, -40, 14, 164, 111, -2, -14, 73, 147, 73, 19, 104, 178, 171, 204, 247, 183, 185, 285, 247, 164, 164, 169, 138, 30, 2, 119, 59, -73, 42, 95, -33, -38, 26, 40, 104, 111, -9, -40, 4, -40, -19, 73, 11, -88, 19, 97, 0, -26, 42, 71, 85, 128, 104, 4, 16, 114]"
1713891152075500250,"[95, -2, -38, 49, 95, 35, 45, 49, 11, 211, 621, 892, 714, 47, -345, -83, 38, -95, -38, -33, -114, -49, -33, -49, 69, 140, -88, -288, 14, 307, 138, -14, 88, 164, 152, 133, 152, 204, 249, 249, 169, 123, 176, 140, 0, 11, 121, 28, -157, -135, -33, -28, -9, -16, -52, -4, 49, 45, -26, -52, 73, 57, -52, 76, 121, -21, 0, 92, 69, 90, 119, 66, 92]"
1713891152636538075,"[114, 73, 130, 164, 69, 21, 38, 23, -11, -45, -21, 2, -21, 33, 57, -40, 95, 511, 787, 647, 135, -242, -130, 45, -47, -116, -11, 16, -57, -9, 64, -21, -71, 33, 69, -23, -2, 88, 69, 76, 111, 52, 66, 157, 159, 164, 209, 188, 145, 140, 99, 66, 121, 59, -111, -66, 52, 0, -26, 30, 26, 16, 49, 61, 49, 61, 88, 57, -4, -14, 26, 52, 66]"
1713891153197575904,"[59, -33, -28, 147, 190, 99, 142, 199, 90, -2, 26, 21, 4, 54, 71, 38, 33, 45, 0, -40, 80, 430, 804, 745, 218, -188, -116, 40, -40, -99, -42, -23, -42, -54, -42, -14, 7, 14, 2, 33, 57, -57, -64, 169, 235, 71, 85, 218, 197, 159, 211, 242, 228, 211, 197, 152, 69, 47, 78, 11, -66, 0, 54, 35, 40, 42, 71, 119, 95, 57, 45, 42, 69]"
1713891153758613729,"[109, 102, 52, 52, 102, 109, 73, 59, 92, 149, 180, 142, 73, 33, -2, 16, 111, 99, -23, -16, 49, 0, -9, 69, 33, 138, 557, 795, 492, -23, -166, -11, 0, -78, -61, -42, -59, -38, -21, -23, -2, -14, -47, -19, 42, 35, 2, 61, 111, 114, 111, 114, 188, 226, 154, 152, 261, 240, 78, 38, 64, 28, 73, 76, -61, -11, 88, 69, 76, -2, -64, 61, 142]"
1713891154319651554,"[40, 11, 102, 104, 69, 80, 130, 126, -11, 4, 152, 83, -7, 71, 135, 133, 73, 26, 78, 69, -14, 19, 71, 26, 9, 49, 61, 73, 66, 16, 119, 440, 756, 716, 278, -54, -11, 28, -54, -47, -7, -11, -23, -38, -19, 4, 0, 14, 57, 9, -54, 45, 123, 42, 52, 149, 114, 104, 211, 226, 180, 192, 199, 176, 149, 119, 66, 30, 85, 90, -30, -35, 49]"
1713891154880719897,"[45, 28, 35, 45, 59, 54, 45, 19, -14, 2, 7, -16, -11, -4, 7, 40, 61, 45, 23, 47, 78, 59, 40, 104, 161, 97, 54, 64, 57, 97, 78, 4, 42, 78, 45, 38, 40, 71, 304, 706, 823, 383, -111, -104, 49, -38, -97, 2, 26, -57, -45, 26, 9, -21, -2, 35, 49, 14, 19, 73, 57, 59, 145, 171, 142, 140, 152, 166, 176, 185, 178, 145, 97]"
1713891155441757722,"[66, 61, 45, 2, -28, -49, -35, 19, 33, 11, 2, -2, 19, 38, 19, 35, 28, -38, -2, 64, 38, 33, 52, 30, 19, 45, 54, 47, 49, 71, 104, 121, 116, 104, 73, 49, 54, 97, 123, 88, 26, -35, -11, 61, 114, 385, 828, 814, 221, -164, -14, 59, -85, -73, 7, -26, -54, -26, 7, 16, 19, -2, -85, -95, 35, 119, 92, 45, 28, 42, 59, 111, 154]"
1713891156002795547,"[140, 142, 171, 173, 142, 109, 73, 35, 11, -7, -30, -4, 26, -28, -83, -88, -45, 19, -9, -23, 2, -16, -9, 16, 33, 47, 35, 30, 38, 35, 35, 49, 71, 64, 35, 76, 135, 99, 64, 109, 126, 97, 64, 33, 49, 57, 40, 49, 54, 45, 38, 33, 145, 464, 790, 699, 157, -164, -30, -4, -128, -66, -2, -99, -121, -23, -16, -47, 4, 52, -2, -21, 49]"
1713891156563833376,"[76, 66, 85, 95, 80, 85, 121, 147, 166, 176, 126, 109, 133, 99, 111, 121, 4, -45, 30, 52, 30, 30, 19, 16, 47, 73, 71, 66, 71, 64, 66, 90, 95, 80, 90, 99, 80, 59, 73, 97, 47, 7, 61, 97, 80, 71, 104, 140, 104, 97, 123, 80, 40, 47, 38, 16, 2, -7, 9, 26, 11, 35, 257, 630, 776, 392, -104, -130, 49, -14, -109, -61, -26]"
1713891157124871201,"[-33, -26, -19, -19, -9, 4, 9, 4, 0, 0, 19, 49, 47, 23, 30, 64, 85, 95, 88, 64, 59, 69, 33, -9, -21, -54, -97, -99, -95, -111, -116, -107, -107, -95, -73, -71, -78, -73, -69, -66, -61, -45, -23, 9, 35, 21, -38, -66, -49, -80, -64, 9, -23, -64, -40, 16, 85, 88, 59, 95, 130, 104, 83, 99, 119, 133, 149, 159, 135, 121, 285, 678, 994]"
1713891157685909026,"[799, 209, -40, 126, 147, 54, 76, 114, 145, 192, 142, 21, -9, 54, 135, 126, 66, 107, 164, 135, 121, 159, 176, 169, 197, 233, 240, 247, 252, 235, 211, 192, 154, 111, 111, 114, 138, 180, 107, 0, -9, 14, 49, 88, 90, 76, 66, 78, 90, 104, 111, 102, 99, 102, 95, 104, 123, 111, 95, 116, 142, 154, 154, 130, 109, 104, 99, 73, 57, 64, 61, 59, 69]"
1713891158246946851,"[57, 16, 57, 330, 728, 797, 302, -188, -114, 69, -47, -114, -40, -40, -59, -26, -4, -9, 7, 35, 21, 16, 61, 76, 66, 83, 104, 128, 152, 157, 180, 178, 116, 126, 221, 211, 26, -83, -4, 9, -69, -92, -88, -90, -69, -14, -9, -71, -49, -2, -40, -45, -4, -4, -16, -35, -66, -38, 7, -19, -76, -59, -30, -61, -83, -78, -76, -59, -45, -30, -23, -45, -83]"
1713891158807984676,"[-85, -76, -95, -102, -90, -121, -142, -119, -102, -126, -142, 33, 499, 914, 740, 2, -388, -114, 11, -149, -126, -33, -73, -102, -69, -80, -92, -57, -28, -30, -16, 28, 45, 59, 88, 83, 97, 152, 192, 202, 199, 197, 204, 192, 149, 104, 90, 88, 49, -9, 4, 30, -21, -33, 14, 42, 69, 73, 83, 128, 142, 145, 199, 247, 226, 211, 249, 259, 238, 221, 214, 218, 207]"
1713891159369053019,"[199, 228, 245, 204, 178, 218, 216, 149, 145, 183, 166, 121, 126, 147, 126, 80, 61, 57, 26, 83, 373, 728, 828, 445, -130, -171, 76, -4, -111, -35, -14, -40, -19, -2, -9, 0, 33, 21, -7, 49, 97, 47, 2, 33, 88, 119, 126, 140, 161, 169, 164, 161, 157, 142, 111, 83, 66, 33, 11, 26, 40, 40, 33, 19, 23, 54, 57, 30, 35, 45, 33, 30, 42]"
1713891159930090848,"[47, 54, 61, 49, 35, 14, -4, 54, 97, 28, -30, -23, -16, -14, -9, -26, -54, -90, -130, -133, -78, -47, -83, -90, -40, -45, -114, -73, 233, 683, 875, 480, -121, -204, -16, -80, -126, -16, -23, -95, -59, -4, -23, -42, 4, 64, 49, 16, 35, 64, 71, 66, 69, 104, 159, 188, 190, 192, 209, 214, 171, 138, 154, 109, 28, 40, 61, 40, 33, 40, 42, 45, 52]"
1713891160491159191,"[61, 49, 14, 11, 42, 66, 61, 23, -16, -7, 30, 40, 28, 35, 61, 71, 61, 57, 61, 47, 30, 47, 73, 76, 71, 47, 4, -4, 11, 7, -4, 11, 23, -2, -40, -47, 95, 464, 883, 859, 235, -211, -30, 92, -73, -80, 11, -14, -28, 7, 7, -11, 11, 57, 66, 47, 52, 78, 102, 133, 159, 169, 197, 233, 221, 209, 233, 245, 202, 147, 142, 116, 52]"
1713891161052197016,"[16, 4, -4, -4, 14, 66, 83, 30, 9, 54, 80, 49, 42, 78, 99, 95, 80, 64, 76, 97, 92, 83, 109, 138, 123, 92, 92, 85, 66, 61, 59, 45, 40, 59, 54, 33, 45, 30, -9, 11, 40, 19, 7, 16, 4, -21, 35, 352, 890, 1104, 530, -154, -121, 88, -33, -85, 2, -2, -33, 2, 7, -40, -45, -38, -49, -35, -2, 19, 28, 40, 54, 78, 104]"
1713891161613234841,"[123, 159, 195, 188, 176, 204, 188, 119, 73, 28, -26, -21, 2, 0, 0, -9, -11, 30, 45, 16, 4, 14, 23, 38, 52, 66, 88, 69, 28, 35, 71, 109, 121, 92, 73, 71, 54, 40, 66, 80, 47, 28, 33, 19, 16, 61, 66, 7, -11, 4, -9, -19, -7, -19, -54, -66, -90, -83, 195, 730, 1011, 587, -102, -226, -21, -78, -152, -52, -26, -78, -52, -7, -7]"
1713891162174272666,"[-9, 4, 19, 38, 57, 54, 35, 33, 64, 92, 104, 121, 161, 192, 161, 126, 145, 145, 95, 73, 83, 64, 19, 2, 11, 11, 7, 26, 52, 33, 2, 21, 47, 45, 42, 47, 52, 57, 66, 88, 90, 66, 52, 64, 66, 42, 14, 2, 14, 21, -9, -28, -9, -4, -33, -26, 30, 61, 42, 11, 4, 4, -4, 38, 109, 88, 23, 38, 52, -2, 47, 383, 897]"
1713891162735341009,"[1064, 511, -95, -52, 102, -23, -45, 35, 9, -14, 28, 26, -9, 11, 57, 64, 71, 92, 97, 97, 114, 114, 114, 154, 188, 188, 185, 185, 171, 152, 145, 109, 66, 61, 35, -26, -38, -19, -40, -66, -47, -16, -7, 9, 23, -4, -23, 7, 21, 16, 42, 42, -11, -21, 26, 26, 4, 4, -19, -38, 9, 33, -16, -21, 21, 2, -14, 47, 85, 52, 28, 21, 19]"
1713891163296378838,"[42, 40, 2, -4, 9, 0, -7, -11, -21, 178, 692, 1054, 699, -21, -188, 35, -9, -90, -4, 7, -30, 2, 30, 21, 26, 38, 38, 30, 40, 59, 64, 59, 57, 71, 111, 152, 164, 176, 195, 190, 178, 166, 128, 78, 49, 26, 9, -2, -9, 7, 23, 14, 14, 30, 40, 54, 61, 42, 38, 57, 28, -14, 21, 90, 90, 23, -9, 30, 38, -9, 0, 33, 16]"
1713891163857416663,"[30, 78, 71, 66, 80, 64, 49, 33, 21, 33, 30, 23, 54, 61, 7, -26, 99, 535, 1030, 899, 138, -245, -23, 2, -188, -157, -71, -99, -99, -57, -35, -9, 0, 4, 30, 49, 88, 88, 66, 145, 190, 97, 80, 176, 173, 123, 211, 235, 130, 147, 171, 114, 202, 347, 357, 435, 599, 623, 616, 547, 445, 476, 416, 283, 338, 392, 218, 157, 321, 357, 314, 288, 223]"
1713891164418485006,"[252, 221, 109, 83, 47, 4, -28, -80, -140, -123, -54, -126, -202, -152, -90, -61, -126, -247, -316, -164, -11, -104, -14, 404, 1152, 1849, 1478, 568, 671, 1209, 1064, 854, 1068, 1142, 914, 880, 1004, 933, 797, 740, 678, 578, 468, 345, 230, 288, 404, 257, 149, 299, 280, 138, 159, 164, 52, 4, 19, -57, -107, -73, -114, -111, -35, -54, -107, -140, -130, -64, -54, -83, -90, -114, -78]"
1713891164979522831,"[4, -14, -23, -19, -76, -73, -54, -71, -64, -102, -176, -173, -142, -142, -123, -88, -111, -190, -218, -173, -164, -204, -211, -195, -214, -214, -166, -180, -199, 123, 706, 866, 338, -230, -264, -188, -338, -347, -223, -207, -209, -140, -119, -133, -78, -33, -33, -4, 19, 19, 35, 73, 111, 121, 142, 204, 192, 116, 128, 214, 228, 207, 199, 145, 71, 4, 11, 80, 92, 61, 61, 85, 109]"
1713891165540591174,"[123, 126, 104, 40, 26, 30, -40, -26, 57, 61, 73, 95, 45, 4, 49, 59, 21, 66, 69, -2, 61, 109, 4, -4, 21, -61, -21, 152, 199, 114, 78, 104, 178, 426, 645, 426, -40, -190, -16, 9, -121, -80, 0, -38, -33, 28, 49, -7, -78, -11, 54, 4, 64, 166, 135, 78, 97, 116, 83, 83, 126, 114, 121, 164, 161, 147, 111, 35, -19, -19, -4, -11, -28]"
1713891166101628999,"[-2, 11, -19, -4, 14, 2, 28, 38, 4, 2, 14, 16, 33, 30, -14, -11, 49, 57, 49, 69, 61, 57, 54, 2, -47, -21, 26, -4, -80, -85, -30, 28, 38, -16, 80, 433, 721, 545, 19, -223, -59, 4, -73, -54, -11, -38, -52, -28, -30, -45, 2, 45, 9, -9, 47, 95, 90, 102, 128, 119, 99, 128, 185, 207, 154, 102, 142, 190, 149, 90, 73, 85, 88]"
1713891166662666828,"[80, 85, 88, 90, 97, 104, 97, 83, 69, 71, 111, 149, 123, 59, 33, 66, 99, 69, 57, 109, 121, 97, 107, 92, 21, -7, 30, 33, 38, 90, 76, 11, -2, -19, -64, 33, 414, 864, 895, 288, -290, -204, -21, -121, -133, -35, -16, -49, -52, -14, 2, -61, -135, -104, 28, 152, 114, -7, 40, 152, 145, 135, 192, 221, 192, 169, 173, 169, 135, 123, 102, 78, 80]"
1713891167223704653,"[49, 11, -11, 2, 66, 88, 78, 114, 142, 116, 76, 80, 116, 107, 61, 71, 95, 90, 83, 59, 52, 90, 88, 80, 135, 154, 78, 30, 71, 90, 64, 42, 66, 116, 95, 16, 28, 247, 616, 918, 752, 107, -188, 52, 49, -140, -85, -19, -59, -23, 9, -42, -80, -26, 38, 14, 4, 52, 61, 71, 114, 126, 90, 73, 97, 140, 169, 157, 133, 128, 111, 78, 57]"
1713891167784757739,"[35, 11, -7, -9, 11, 30, 21, 7, 7, 9, 16, 23, 33, 35, 30, 23, 23, 35, 45, 26, 4, 9, 26, 49, 73, 61, 47, 59, 59, 49, 47, 28, 9, 42, 92, 99, 59, 11, 47, 304, 716, 909, 521, -90, -166, 64, 26, -52, 2, 4, -19, 4, 4, -4, 19, 16, 11, 38, 30, 35, 90, 107, 80, 90, 119, 140, 138, 107, 121, 159, 107, 28, 59]"
1713891168345810821,"[123, 66, -38, -4, 71, 23, -28, 2, 16, 26, 61, 52, 19, 23, 66, 104, 90, 23, -9, 38, 66, 47, 52, 45, 28, 66, 102, 114, 109, 66, 61, 73, 45, 45, 52, 7, 16, 102, 121, 102, 99, 59, 52, 268, 695, 956, 618, -30, -176, 45, 11, -80, -21, -9, -35, -9, 16, 16, 26, 40, 26, 14, 54, 78, 54, 49, 66, 88, 116, 126, 121, 104, 92]"
1713891168906848646,"[121, 126, 61, -14, -49, -61, -88, -104, -97, -104, -121, -116, -85, -64, -95, -114, -61, -35, -64, -61, -40, -40, -42, -57, -71, -59, -54, -59, -54, -52, -49, -38, -30, -38, -47, -49, -26, 11, 28, 26, 19, 0, -9, 11, 26, 14, 14, 16, 11, 0, 14, 228, 735, 1147, 852, 64, -188, 76, 64, -71, -11, 7, -45, -11, 52, 42, -7, -23, -21, -19, -16, -21, -7]"
1713891169467886471,"[19, 21, 35, 59, 73, 69, 57, 71, 90, 42, -30, -64, -111, -138, -97, -116, -199, -209, -176, -173, -171, -138, -109, -97, -102, -97, -85, -80, -52, -14, -14, -7, 14, -2, -7, 19, 26, 38, 69, 64, 23, 11, 54, 97, 80, 69, 114, 107, 52, 61, 80, 66, 59, 66, 71, 21, -23, 223, 802, 1183, 776, -16, -180, 80, 30, -99, -47, -21, -19, 16, 14, -2, 19]"
1713891170028924300,"[38, 28, 14, 7, 19, 38, 45, 61, 73, 52, 54, 97, 119, 109, 104, 88, 33, -23, -47, -80, -119, -126, -128, -107, -49, -35, -57, -57, -38, -14, -2, 21, 42, 21, 23, 47, 49, 59, 78, 90, 95, 76, 83, 111, 97, 69, 71, 80, 92, 83, 71, 61, 54, 76, 114, 119, 111, 173, 223, 147, 66, 45, 85, 142, 135, 128, 145, 149, 376, 940, 1302, 852, 80]"
1713891170589962125,"[-40, 171, 76, 2, 121, 178, 221, 276, 249, 228, 249, 233, 178, 152, 142, 133, 140, 152, 159, 169, 204, 240, 183, 159, 280, 335, 266, 252, 266, 152, -26, -61, -30, -66, -38, 23, 0, 7, 83, 135, 145, 154, 142, 116, 114, 138, 171, 159, 107, 97, 90, 42, 7, 16, 26, 2, -21, -19, -2, 33, 40, -30, -66, -4, 28, 14, 38, 57, 9, -23, -26, -28, -19]"
1713891171150999950,"[-14, -35, -42, -11, 0, -30, -59, 40, 361, 704, 647, 133, -221, -111, -54, -171, -147, -40, -4, -11, -23, -23, -16, -19, -38, -30, 0, 0, -7, 19, 21, 0, 11, 30, 33, 52, 83, 90, 64, 38, 33, 0, -64, -88, -90, -104, -109, -104, -104, -102, -92, -80, -78, -85, -73, -57, -76, -80, -42, -40, -73, -66, -57, -64, -49, -28, -11, -7, -21, -28, -35, -14, 35]"
1713891171712037775,"[35, 14, 45, 73, 85, 90, 78, 88, 95, 76, 85, 109, 73, 26, 52, 92, 57, -28, -14, 290, 845, 1114, 614, -83, -135, 66, -33, -99, 16, 45, 0, 21, 45, 47, 97, 142, 140, 149, 199, 249, 264, 264, 283, 266, 226, 233, 233, 171, 149, 188, 157, 88, 64, -2, -102, -116, -83, -111, -138, -54, -2, -54, -30, 21, -4, 16, 90, 76, 14, 19, 45, 7, -14]"
1713891172273075600,"[28, 61, 54, 21, -11, -9, 9, 23, 30, 26, 7, -4, 0, -28, -83, -61, -4, 0, -11, -7, -4, -21, -52, -69, -90, -107, -38, 0, -47, -61, -59, -19, 273, 771, 945, 404, -216, -159, 59, -57, -123, -38, -16, -30, -9, -9, -14, 9, 16, 30, 71, 92, 80, 90, 135, 152, 152, 188, 214, 204, 197, 209, 211, 199, 159, 92, 49, 47, 26, 2, 16, 11, 4]"
1713891172834113425,"[16, 23, 38, 30, -4, 9, 40, -16, -59, 2, 40, 19, 7, 11, 4, 7, 35, 47, 19, -7, 4, 14, -4, -16, -21, -19, 21, 57, 33, 2, 11, 14, 0, 19, 59, 28, -26, -2, 28, 4, -23, -26, -28, -35, -28, 0, 14, 4, 11, 16, -30, -19, 257, 730, 999, 668, 16, -130, 128, 145, 61, 142, 180, 97, 45, 40, 21, 33, 73, 92, 99, 73, 49]"
1713891173395151254,"[76, 78, 80, 176, 173, 104, 209, 304, 285, 257, 240, 271, 252, 190, 166, 73, 21, 102, 126, 95, 126, 123, 80, 83, 104, 95, 90, 88, 66, 57, 52, 0, -14, 38, 35, 66, 99, -7, -92, -45, 40, 66, 21, 21, 83, 23, -88, -21, 109, 69, -47, -9, 123, 114, 2, 11, 66, 9, -16, 104, 166, 104, 57, 28, 23, 71, 107, 154, 183, 145, 169, 388, 706]"
1713891173956189079,"[821, 514, 111, 169, 264, 11, -21, 119, 92, 121, 171, 99, 88, 114, 80, 123, 176, 145, 159, 183, 147, 166, 185, 80, 38, 130, 178, 161, 154, 154, 121, 71, 33, -11, -59, -69, -76, -109, -109, -83, -78, -97, -104, -61, -21, -30, -28, -21, -47, -64, -69, -61, -40, -35, -47, -30, -7, -26, -45, -16, -7, -9, 30, 35, -33, -57, -7, 9, 0, 16, 45, 69, 85]"
1713891174517226904,"[114, 169, 166, 11, -71, 21, 52, 61, 138, 121, 49, 154, 264, 254, 530, 780, 357, -92, 54, 188, 59, 57, 123, 107, 107, 128, 149, 164, 138, 147, 152, 97, 159, 247, 183, 159, 199, 169, 183, 264, 278, 254, 247, 195, 161, 188, 149, 95, 38, -38, -19, 45, -16, -114, -38, 40, 19, 40, 35, -7, 21, 28, 11, 57, 57, 16, 38, 52, 52, 64, 47, 49, 76]"
1713891175078264729,"[69, 61, 78, 35, 0, 61, 97, 71, 54, 33, 64, 114, 99, 59, 33, 26, 47, 35, 19, 47, 57, 49, 52, 35, 78, 328, 754, 959, 507, -102, -52, 209, 66, -54, 104, 145, 66, 69, 116, 259, 292, 95, 95, 261, 238, 164, 173, 171, 149, 157, 228, 238, 152, 218, 295, 135, 73, 211, 180, 47, 214, 276, -76, -99, 128, -30, -123, 73, 57, -49, 19, 54, 42]"
1713891175639302554,"[42, -66, -80, 47, -97, -314, -218, 14, -11, -207, -90, 69, -114, -204, -76, -42, -40, 9, 21, 14, 9, 61, 40, -111, 0, 169, -14, -57, 47, -66, -40, 99, 2, -69, 28, 95, 264, 583, 618, 240, -59, -45, -9, -16, 52, 138, 35, -138, -11, 154, 38, -49, 49, 88, 49, 57, 59, 47, 64, 85, 102, 119, 121, 133, 145, 111, 88, 99, 102, 61, 2, -14, 7]"
1713891176200340379,"[9, -7, -19, -47, -76, -40, 2, -14, -33, -30, -11, 19, 23, 21, 23, -2, -66, -114, -80, 0, 2, -4, 11, -9, 16, 4, -30, 54, 121, 119, 83, 88, 140, 59, -26, 47, 121, 97, 95, 149, 169, 149, 147, 273, 590, 821, 533, 40, 4, 147, 35, 30, 114, 7, 11, 80, 26, 83, 178, 107, -19, 7, 130, 45, -64, 38, 45, -14, 121, 245, 211, 121, 40]"
1713891176761378208,"[123, 238, 97, -90, -45, 73, 33, -30, 9, -4, -21, -47, -111, -35, 35, 38, 78, 7, -80, -23, 23, 23, 57, 69, 28, 0, 26, 49, 57, 99, 64, -38, 14, 90, 76, 71, 116, 133, 59, 7, 83, 130, -9, -69, 49, 88, 54, 54, 157, 449, 792, 687, 80, -188, 66, 185, 38, -59, -9, 71, 49, 0, 59, 123, 64, 23, 85, 104, 66, 73, 97, 104, 119]"
1713891177322416033,"[149, 171, 185, 190, 188, 207, 221, 183, 109, 64, 54, 30, 14, -9, -23, 2, -7, 0, 49, 38, 0, -28, -33, -4, 33, 61, 45, 69, 107, 14, -64, 0, 47, 19, 26, 78, 80, 59, 78, 102, 119, 138, 38, -49, 49, 69, -28, 7, 69, 21, -4, 11, 30, 178, 502, 718, 514, 71, -73, 66, 52, -66, -57, -14, -11, 11, 26, 11, 21, 42, 52, 64, 73]"
1713891177883453858,"[64, 66, 88, 102, 121, 145, 152, 152, 159, 161, 157, 135, 88, 49, 33, 14, -11, -33, -47, -61, -80, -80, -64, -61, -71, -64, -42, -33, -42, -57, -57, -52, -57, -64, -71, -80, -80, -97, -130, -123, -85, -71, -57, -28, -21, -26, -42, -66, -64, -45, -52, -69, -71, -64, -59, -83, -104, 42, 459, 883, 790, 128, -268, -64, 21, -121, -92, -28, -57, -33, 14, 0, -4]"
1713891178444491683,"[30, 40, 40, 66, 80, 73, 92, 130, 145, 140, 147, 159, 154, 159, 171, 159, 147, 126, 73, 33, 21, 21, 21, 19, 9, 16, 38, 47, 52, 59, 47, 30, 40, 59, 66, 66, 66, 69, 85, 116, 128, 109, 90, 73, 54, 49, 71, 97, 109, 102, 85, 57, 28, 19, 23, 21, 19, 26, 23, 4, -45, -85, 119, 687, 1173, 899, 92, -218, -19, -30, -149, -92, -35]"
1713891179005529508,"[-61, -71, -57, -47, -35, -38, -61, -61, -38, -26, -4, 28, 38, 52, 85, 126, 145, 123, 111, 140, 142, 95, 52, 7, -49, -45, -21, -40, -45, -42, -54, -26, 9, 9, -2, -2, -2, 0, 4, 11, 23, 35, 45, 52, 47, 45, 54, 49, 49, 66, 66, 59, 61, 49, 42, 83, 123, 109, 85, 71, 57, 47, 40, 33, 45, 30, 0, -9, -69, -90, 218, 845, 1192]"
1713891179566567333,"[704, -83, -216, -11, -88, -176, -95, -71, -104, -95, -76, -73, -73, -57, -16, -7, -35, -9, 45, 45, 47, 85, 111, 135, 169, 166, 142, 147, 142, 107, 71, 52, 30, -7, -30, -11, 0, -4, 4, 11, 23, 38, 45, 61, 66, 59, 83, 83, 49, 69, 90, 71, 76, 97, 99, 92, 95, 88, 61, 61, 73, 59, 52, 76, 80, 64, 66, 71, 52, 40, 49, 61, 80]"
1713891180127605162,"[80, 54, 28, 11, 0, 7, 2, -52, -102, -107, -121, -149, -2, 487, 997, 854, 88, -314, -109, -59, -195, -149, -78, -99, -102, -73, -54, -45, -30, -14, -9, -2, 21, 42, 57, 78, 95, 119, 140, 154, 169, 178, 178, 176, 161, 128, 97, 66, 33, 21, 23, 16, 16, 33, 45, 52, 61, 69, 73, 80, 92, 107, 114, 107, 116, 138, 128, 116, 123, 126, 126, 128, 126]"
1713891180688642987,"[126, 104, 78, 88, 95, 83, 85, 76, 45, 30, 23, 16, 16, 4, 4, 23, 26, 19, 26, 21, -7, -14, -7, -9, -4, 9, 9, -7, -42, -47, 176, 690, 1087, 783, 30, -197, 28, 0, -119, -54, -28, -54, -23, -9, -21, -2, 19, 26, 40, 49, 57, 78, 97, 107, 130, 169, 190, 204, 221, 230, 226, 211, 185, 128, 61, 26, 7, -38, -69, -47, -35, -47, -42]"
1713891181249680812,"[-52, -78, -57, -16, -2, 0, -19, -33, -21, -7, -4, 11, 28, 23, 26, 33, 19, 14, 30, 26, 30, 52, 59, 45, 11, -14, -7, 2, 7, 30, 47, 30, 23, 33, 33, 35, 40, 19, -9, 11, 45, 40, -4, -64, 69, 621, 1275, 1233, 368, -185, 14, 104, -49, -7, 69, 19, 16, 61, 73, 71, 69, 71, 66, 64, 90, 121, 128, 149, 195, 211, 216, 261, 307]"
1713891181810718637,"[290, 252, 247, 235, 180, 130, 104, 78, 64, 59, 35, 9, 9, 26, 33, 30, 23, 23, 35, 47, 35, 11, 2, 11, 14, 16, 19, 11, 2, 0, -11, -16, -9, -7, -9, 2, 9, 9, 16, 26, 33, 40, 45, 52, 59, 59, 61, 66, 73, 97, 126, 138, 116, 64, 35, 54, 66, 61, 73, 76, 64, 57, 26, 45, 380, 1023, 1333, 742, -61, -88, 149, 2, -97]"
1713891182371756462,"[19, 40, -4, 38, 78, 61, 59, 64, 57, 78, 104, 99, 102, 121, 142, 164, 183, 202, 233, 254, 249, 247, 245, 211, 159, 116, 85, 49, 16, 21, 54, 45, -11, -14, 21, -4, -26, -2, 0, -14, -21, -19, -7, 4, 4, -19, -69, -80, -47, -23, -30, -28, -14, -11, -9, 0, 14, 19, 23, 38, 45, 30, 33, 54, 71, 71, 71, 73, 47, 30, 71, 97, 95]"
1713891182932794287,"[111, 114, 99, 66, 7, 0, 42, 59, 30, 2, -7, 9, 209, 695, 1109, 816, 21, -221, 49, 35, -80, 2, 30, -16, 9, 28, 16, 33, 49, 49, 47, 49, 76, 88, 92, 116, 111, 107, 135, 119, 97, 138, 157, 133, 119, 85, 30, 0, -16, -33, -35, -38, -47, -35, -11, -16, -26, -7, 0, 2, 23, 33, 33, 42, 45, 49, 54, 45, 38, 49, 54, 45, 52]"
1713891183493862634,"[61, 54, 47, 42, 40, 59, 88, 76, 35, 28, 42, 45, 59, 80, 83, 73, 61, 54, 52, 52, 49, 57, 66, 73, 57, 19, 30, 285, 792, 1068, 626, -78, -161, 66, -4, -85, -2, 7, -26, 4, 30, 23, 21, 23, 19, 28, 47, 52, 59, 80, 97, 111, 135, 164, 180, 183, 190, 192, 171, 130, 88, 52, 14, -11, -14, -11, -19, -19, -4, 0, 7, 21, 28]"
1713891184054900459,"[30, 40, 52, 59, 64, 69, 76, 83, 80, 88, 88, 59, 47, 66, 71, 66, 73, 78, 69, 64, 71, 71, 76, 90, 88, 76, 64, 52, 42, 42, 47, 42, 42, 52, 57, 45, 9, -14, 152, 592, 985, 795, 130, -173, -2, 9, -107, -64, -23, -73, -92, -73, -83, -83, -59, -54, -57, -45, -35, -19, 11, 30, 49, 69, 88, 107, 128, 142, 138, 121, 97, 73, 49]"
1713891184615938284,"[30, -4, -30, -4, 16, -33, -69, -54, -54, -69, -57, -33, -38, -54, -64, -66, -73, -88, -99, -99, -97, -88, -76, -69, -78, -88, -80, -69, -61, -61, -66, -61, -40, -7, 19, 21, -7, -30, -21, -2, -4, -9, -14, -19, -11, -35, -66, 92, 571, 1054, 923, 180, -204, 7, 49, -92, -47, 2, -45, -35, 4, -2, -7, 14, 23, 26, 33, 26, 26, 57, 80, 90, 107]"
1713891185176976109,"[119, 128, 152, 164, 161, 145, 104, 61, 30, -14, -73, -104, -107, -92, -80, -78, -69, -54, -45, -30, -11, 0, 7, 19, 28, 30, 35, 57, 71, 66, 61, 61, 59, 59, 66, 71, 73, 76, 83, 85, 83, 85, 104, 135, 149, 135, 114, 104, 102, 104, 111, 114, 121, 128, 95, 26, 52, 388, 1009, 1347, 828, 21, -80, 142, 45, -42, 42, 54, 23, 45, 49, 49, 80]"
1713891185738013934,"[90, 78, 57, 33, 42, 69, 83, 95, 97, 92, 107, 123, 123, 126, 119, 97, 80, 52, 16, 2, -14, -33, -33, -33, -30, -21, -21, -16, 7, 23, 30, 26, 19, 33, 54, 57, 59, 69, 76, 76, 71, 73, 90, 99, 85, 85, 97, 99, 104, 107, 92, 85, 92, 116, 140, 142, 128, 107, 78, 76, 90, 85, 85, 97, 102, 90, 42, -16, 154, 709, 1192, 940, 149]"
1713891186299051759,"[-180, 33, 52, -71, -14, 21, -38, -26, 11, -4, 2, 42, 38, 23, 40, 57, 47, 40, 61, 99, 119, 119, 140, 157, 145, 133, 128, 111, 78, 33, 7, 2, -23, -52, -38, -19, -16, -2, 21, 21, 14, 26, 38, 47, 61, 66, 57, 54, 64, 59, 64, 83, 78, 64, 76, 90, 90, 88, 85, 69, 47, 45, 49, 52, 57, 54, 47, 54, 69, 71, 83, 104, 109]"
1713891186860089588,"[95, 83, 66, 35, 26, 35, 26, 21, 30, 11, -33, 64, 480, 1006, 1021, 352, -152, -14, 85, -49, -47, 16, 7, 19, 42, 42, 45, 49, 54, 69, 80, 88, 97, 111, 128, 152, 159, 149, 147, 161, 173, 180, 178, 145, 95, 59, 33, 9, 2, 0, -19, -38, -47, -49, -35, -16, -16, -16, 0, 14, 19, 23, 21, 16, 26, 38, 45, 45, 42, 35, 23, 30, 45]"
1713891187421157931,"[49, 40, 38, 49, 64, 61, 59, 59, 49, 52, 61, 57, 35, 16, 19, 26, 40, 64, 73, 76, 66, 47, 42, 49, 49, 52, 57, 61, 57, 33, -9, 23, 318, 816, 1006, 518, -76, -71, 102, 4, -45, 21, 16, -7, 0, -7, -9, 2, 11, 21, 26, 38, 59, 76, 83, 95, 109, 121, 130, 135, 135, 119, 104, 99, 69, 7, -33, -59, -92, -107, -104, -102, -90]"
1713891187982195756,"[-76, -73, -80, -73, -61, -57, -47, -33, -33, -54, -64, -45, -30, -35, -30, -28, -30, -19, -9, -21, -30, -26, -14, -9, -4, -7, -9, 4, 14, 11, 19, 26, 30, 47, 80, 92, 54, 2, -9, -2, 4, 26, 30, 11, 7, 0, -52, -16, 354, 968, 1194, 576, -142, -121, 64, -69, -111, -19, -26, -47, -11, -4, -14, 4, 28, 33, 47, 61, 66, 85, 111, 133, 147]"
1713891188543233581,"[157, 166, 180, 197, 202, 176, 104, 35, 19, -4, -57, -88, -95, -92, -76, -64, -61, -61, -61, -49, -28, -21, -11, 0, -4, -4, 16, 26, 19, -9, -33, -16, 7, 9, 14, 19, 14, 19, 35, 45, 59, 64, 33, 9, 35, 47, 30, 23, 45, 80, 104, 109, 95, 71, 57, 64, 80, 80, 80, 78, 61, 16, -38, 114, 702, 1352, 1211, 295, -183, 47, 92, -76, -40]"
1713891189104271406,"[19, -23, -26, 9, 9, 7, 30, 45, 42, 42, 45, 57, 73, 90, 107, 116, 123, 138, 145, 147, 140, 119, 61, 0, -23, -42, -76, -90, -90, -88, -78, -69, -61, -54, -66, -76, -38, -4, -7, -11, 7, 30, 33, 40, 57, 59, 66, 76, 80, 88, 92, 90, 104, 111, 102, 95, 85, 78, 83, 80, 71, 52, 45, 78, 109, 102, 80, 54, 0, -19, 21, 21, 2]"
1713891189665309231,"[23, 42, 26, -35, -21, 330, 947, 1185, 583, -138, -119, 90, -45, -107, -19, -59, -114, -54, -30, -54, -30, -7, -16, -7, 9, 0, -4, 14, 30, 42, 59, 83, 85, 80, 97, 107, 92, 66, 45, 47, 52, 38, 0, -19, 19, 57, 52, 49, 57, 47, 35, 42, 73, 92, 83, 64, 66, 76, 45, 7, 42, 71, 49, 59, 78, 69, 59, 73, 88, 85, 85, 92, 90]"
1713891190226347060,"[78, 76, 85, 90, 76, 49, 69, 114, 92, 19, -2, 28, 57, 64, 57, 38, 33, 16, -33, -7, 247, 702, 961, 609, 14, -71, 88, -26, -90, 16, 14, -26, 19, 38, 28, 33, 4, -4, 33, 35, 33, 52, 64, 88, 83, 64, 116, 161, 142, 135, 142, 128, 126, 102, 42, 28, 2, -52, -28, 9, 0, 2, 23, 23, 11, 21, 52, 66, 54, 49, 64, 69, 66]"
1713891190787384885,"[57, 35, 30, 47, 59, 57, 49, 33, 21, 35, 45, 42, 40, 23, 0, 9, 23, 21, 19, 14, 19, 52, 73, 69, 54, 30, 21, 33, 30, 19, 26, 33, 30, 14, -19, 47, 392, 849, 906, 340, -178, -102, 40, -71, -104, -33, -33, -57, -52, -52, -54, -38, -16, -4, 4, 7, 2, 30, 73, 88, 104, 138, 152, 166, 185, 176, 133, 99, 88, 61, 16, -14, -19]"
1713891191348453228,"[-7, -16, -33, -19, -2, -2, 7, 2, -4, 33, 49, 7, 4, 35, 21, 4, 40, 61, 57, 85, 97, 61, 54, 95, 107, 83, 85, 95, 71, 61, 76, 61, 45, 66, 121, 183, 195, 147, 135, 164, 149, 114, 107, 116, 138, 171, 149, 88, 71, 245, 756, 1259, 999, 216, -35, 152, 80, -28, 54, 54, -28, -7, 38, 11, -7, 2, 0, 2, 30, 33, 21, 57, 109]"
1713891191909470709,"[128, 138, 128, 109, 138, 164, 159, 161, 121, 57, 23, -4, -33, -11, 16, 0, 2, 14, 2, 4, 14, 23, 30, 26, 28, 49, 47, 33, 64, 83, 45, 28, 54, 59, 47, 35, 19, 42, 85, 64, 47, 80, 54, 4, 49, 90, 30, 7, 76, 123, 95, 40, 38, 71, 49, 42, 119, 154, 119, 152, 199, 107, 145, 590, 1154, 1225, 652, 149, 171, 254, 173, 138, 154]"
1713891192470498360,"[145, 159, 190, 185, 149, 121, 116, 130, 142, 152, 171, 178, 154, 114, 126, 166, 173, 185, 199, 209, 211, 178, 140, 107, 85, 126, 173, 166, 73, -71, -107, -40, -2, 9, -7, -42, -78, -99, -95, -178, -380, -580, -737, -906, -1106, -1271, -1366, -1421, -1437, -1435, -1375, -1221, -1040, -818, -495, -133, 178, 457, 726, 933, 1066, 1164, 1216, 1199, 1187, 1225, 1199, 1130, 1106, 1066, 987, 895, 764]"
1713891193031566703,"[752, 1171, 1861, 1978, 1185, 397, 283, 311, 130, 30, 42, -11, -49, -40, -78, -130, -133, -130, -157, -176, -164, -173, -197, -178, -157, -171, -183, -164, -140, -159, -207, -240, -280, -316, -349, -421, -433, -407, -502, -566, -485, -416, -435, -528, -580, -504, -440, -459, -449, -383, -388, -461, -428, -340, -342, -352, -295, -273, -316, -314, -278, -283, -299, -264, -202, -171, -185, -195, -145, -95, -128, -183, -166]"
1713891193592604532,"[-145, -142, -107, -78, -78, -92, -116, -147, -176, -57, 395, 952, 921, 188, -254, -76, -52, -204, -135, -71, -119, -99, -64, -76, -66, -26, -23, -47, -42, -14, 11, 28, 11, -7, 49, 130, 149, 166, 197, 190, 169, 161, 111, 9, -76, -88, -54, -14, 23, 28, -11, -57, -38, 40, 83, 52, -9, 19, 147, 190, 171, 195, 199, 207, 240, 252, 249, 242, 223, 192, 211, 328, 342]"
1713891194153642357,"[157, 45, 85, 164, 233, 264, 259, 199, 149, 154, 185, 223, 228, 195, 166, 159, 142, 102, 157, 447, 730, 635, 183, -159, -61, 49, -47, -14, 45, -30, -54, -7, 9, 21, 38, 52, 83, 102, 95, 116, 88, -9, 35, 157, 164, 157, 199, 211, 202, 197, 159, 102, 78, 64, 26, -9, -23, -33, -47, -38, -14, -49, -102, -66, -28, -42, -38, -19, -30, -38, -14, -9, -42]"
1713891194714680182,"[-52, -23, -14, -28, -16, 4, -9, -35, -33, -23, -16, -2, -11, -35, -19, 7, -11, -49, -59, -57, -54, -42, -28, -19, -21, -30, -45, -2, 240, 656, 845, 433, -130, -145, 49, -28, -88, -9, 2, -14, -2, -11, -9, 21, 35, 49, 76, 69, 52, 90, 116, 119, 152, 185, 207, 223, 209, 199, 209, 183, 128, 78, 54, 40, 19, 4, -9, -19, -14, -11, -11, -4, -9]"
1713891195275718007,"[-30, -35, -28, -19, -7, -33, -76, -69, -47, -64, -61, -35, -26, -7, 16, 26, 42, 40, 0, -4, 30, 47, 47, 64, 92, 130, 138, 80, 28, 42, 71, 64, 54, 64, 69, 69, 57, 26, 47, 302, 790, 1149, 847, 57, -195, 107, 116, -35, 14, 73, 61, 59, 59, 71, 92, 95, 104, 128, 140, 140, 152, 180, 207, 218, 223, 245, 288, 304, 280, 278, 278, 178, 64]"
1713891195836786350,"[45, 35, 7, 0, -14, -23, -38, -78, -49, -35, -121, -123, -16, 28, -9, -35, -11, -2, -40, -61, -45, -54, -71, -40, 16, 23, -2, 4, 30, 0, -33, -2, 21, 11, 26, 40, 45, 69, 102, 107, 52, 23, 61, 52, 28, 123, 185, 99, 21, 0, -2, 161, 592, 992, 880, 278, -109, -16, 45, -14, 28, 69, 47, 47, 47, 35, 66, 88, 61, 88, 180, 190, 140]"
1713891196397824175,"[140, 126, 154, 247, 309, 342, 340, 311, 299, 254, 178, 140, 123, 121, 95, 14, -23, -19, -9, 28, 38, 11, 4, 26, 33, 26, 35, 35, 16, 14, 28, 23, 9, 7, 4, 14, 30, 33, 23, 21, 26, 26, 30, 40, 49, 35, 11, 7, 19, 33, 38, 33, 35, 61, 92, 83, 45, 7, -4, 14, 26, 35, 35, 16, 23, 47, 30, 40, 252, 676, 897, 521, -38]"
1713891196958862004,"[-80, 119, 45, -23, 76, 83, -4, -14, 35, 45, 42, 76, 97, 83, 80, 114, 152, 161, 157, 173, 199, 207, 238, 278, 261, 242, 257, 226, 161, 135, 111, 92, 99, 88, 64, 57, 57, 64, 47, 33, 49, 47, 14, 30, 64, 35, -4, 11, 57, 38, -11, 9, 38, 2, -23, 11, 49, 47, 33, 38, 38, 30, 28, 30, 52, 52, 35, 45, 49, 35, 35, 54, 83]"
1713891197519899829,"[104, 83, 40, 47, 61, 47, 49, 76, 71, 33, 28, 33, 16, 99, 433, 856, 890, 333, -140, -21, 116, -9, -33, 30, 38, 52, 76, 66, 64, 73, 83, 92, 88, 90, 109, 119, 128, 154, 176, 195, 185, 161, 197, 228, 197, 152, 119, 95, 76, 42, 4, -11, -11, -14, -9, -21, -49, -38, 0, 4, -21, -33, -28, -21, -7, 2, -7, -7, 7, 11, 7, 7, 28]"
1713891198080937654,"[45, 33, 23, 23, 38, 59, 52, 30, 33, 49, 57, 64, 64, 54, 64, 80, 78, 83, 111, 116, 95, 88, 85, 83, 76, 54, 52, 76, 92, 88, 66, 28, 78, 352, 776, 942, 457, -157, -121, 102, -4, -69, 2, -9, -23, 19, 33, 16, 16, 28, 23, 26, 47, 61, 49, 47, 76, 97, 114, 152, 157, 133, 138, 138, 102, 80, 69, 9, -64, -85, -78, -69, -64]"
1713891198641975479,"[-97, -109, -19, 23, -54, -66, 9, 19, 0, 52, 78, -2, -47, 49, 19, -109, 23, 171, 90, 85, 166, 130, 138, 214, 207, 216, 238, 185, 190, 240, 240, 216, 183, 173, 259, 323, 142, -61, 40, 221, 278, 223, 92, 104, 207, 114, -16, 135, 445, 730, 847, 528, -14, -154, 76, 154, 35, -123, -183, -26, 128, 83, 23, 35, -4, -19, 49, 80, 45, 59, 116, 142, 149]"
1713891199203013304,"[121, 121, 192, 152, 21, 76, 145, 69, 76, 16, -149, -90, 92, 23, -126, -64, 11, -9, -16, -2, 19, 52, -11, -71, 7, -47, -130, -23, 59, 23, 4, 40, 23, 9, 54, 33, 2, 26, 33, 49, 40, -14, 21, 147, 161, 54, 40, 90, 40, 9, 145, 197, -11, -121, 19, 90, 52, 47, 102, 302, 611, 647, 228, -104, 2, 119, 19, -2, 85, 78, 49, 80, 76]"
1713891199764051129,"[52, 71, 92, 97, 88, 49, 42, 85, 97, 78, 66, 64, 73, 71, 54, 61, 64, 40, 38, 28, -26, -54, -52, -78, -99, -85, -61, -66, -90, -97, -69, -38, -33, -35, -30, -33, -26, -2, 11, -4, -19, 4, 14, 2, 11, 19, 4, 7, 26, 35, 19, 0, 19, 59, 64, 45, 35, 9, -23, -28, -9, 9, 11, 4, 4, 7, -26, -11, 254, 695, 902, 526, -83]"
1713891200325088958,"[-173, 42, -4, -92, -28, -21, -66, -69, -59, -38, -23, -33, -30, -16, 2, 14, 9, 33, 61, 49, 57, 83, 90, 114, 145, 135, 121, 107, 49, 4, -7, -19, -30, -42, -45, -11, 16, 0, -16, 0, 23, 23, 21, 42, 54, 49, 54, 64, 64, 61, 54, 49, 59, 69, 71, 66, 49, 57, 90, 95, 88, 97, 83, 61, 61, 64, 61, 59, 61, 73, 47, -21, -47]"
1713891200886126783,"[116, 540, 975, 918, 259, -188, -2, 92, -57, -16, 47, -35, -54, 4, 21, 28, 33, 33, 76, 99, 66, 76, 145, 154, 135, 192, 226, 176, 178, 228, 235, 207, 140, 71, 47, 47, 28, -4, -2, -11, -57, -26, 23, -11, -30, 14, 23, 23, 49, 30, 14, 49, 64, 57, 76, 80, 57, 52, 69, 71, 66, 73, 49, 28, 78, 109, 66, 66, 83, 33, 4, 38, 40]"
1713891201447164608,"[19, 28, 40, 33, 16, -4, 152, 604, 992, 766, 78, -195, 16, 23, -107, -49, 11, -26, -23, 11, 11, 2, 23, 49, 57, 64, 80, 97, 116, 140, 140, 133, 164, 204, 216, 216, 204, 166, 135, 111, 69, 26, 9, -2, -9, 2, 4, -14, -30, -38, -38, -23, -14, -19, -19, -28, -47, -42, -30, -28, -26, -28, -40, -49, -38, -19, -19, -28, -21, -11, -11, 0, 14]"
1713891202008202433,"[30, 49, 54, 45, 28, 11, 4, 19, 30, 28, 26, 9, -35, -83, -2, 390, 964, 1123, 492, -178, -121, 49, -99, -140, -45, -52, -71, -33, -16, -19, -9, 2, 16, 28, 38, 47, 59, 80, 114, 145, 161, 178, 185, 176, 173, 183, 161, 107, 42, -11, -23, -19, -35, -64, -73, -47, -11, -9, -38, -49, -26, -2, 2, 9, -2, -26, -11, 16, 7, -21, -40, -47, -40]"
1713891202569240258,"[-19, 2, 19, 40, -4, -78, -47, 38, 61, 54, 35, 26, 19, -35, -71, -38, 2, 14, 7, -16, -52, 90, 616, 1216, 1144, 321, -176, 40, 111, -85, -66, 54, 57, 14, 28, 80, 95, 90, 126, 161, 126, 71, 121, 166, 92, 116, 238, 245, 218, 230, 226, 233, 235, 188, 121, 59, 38, 42, 19, -21, -23, 9, 19, 21, 21, -11, -2, 54, 47, 16, 80, 121, -16]"
1713891203130278083,"[-92, 4, 28, -23, -26, -35, -119, -173, -80, 11, -28, -49, 9, 42, 21, -16, -16, 14, 33, 52, 92, 114, 99, 52, -7, 116, 583, 1123, 1133, 430, -138, -26, 83, -80, -126, -78, -95, -99, -76, -76, -80, -69, -59, -49, -30, -4, 30, 76, 95, 88, 97, 133, 166, 185, 183, 173, 154, 123, 88, 57, 40, 38, 30, 11, 14, 23, 35, 64, 66, 42, 38, 47, 69]"
1713891203691315912,"[97, 121, 111, 78, 78, 107, 119, 119, 114, 107, 111, 126, 130, 123, 123, 133, 142, 145, 145, 145, 133, 111, 114, 128, 135, 154, 145, 80, 38, 42, 47, 40, 28, 16, 21, 30, 0, -30, 149, 628, 1028, 797, 102, -176, 4, 23, -57, -14, 9, -9, 0, 11, 16, 35, 57, 64, 66, 76, 85, 90, 107, 140, 164, 185, 202, 216, 238, 252, 242, 223, 195, 157, 130]"
1713891204252353737,"[109, 90, 73, 71, 76, 80, 80, 76, 71, 80, 92, 85, 61, 49, 64, 76, 76, 78, 69, 45, 16, 11, 26, 23, 16, 26, 26, 33, 45, 40, 21, 11, 4, 16, 42, 52, 40, 19, -7, -19, -19, -28, -35, -30, -35, -33, -38, -90, -109, 95, 559, 940, 699, -4, -266, -52, -57, -173, -104, -59, -90, -71, -42, -38, -21, -9, 0, 14, 23, 42, 61, 78, 114]"
1713891204813391562,"[145, 157, 190, 226, 226, 226, 228, 202, 140, 64, 9, -9, -47, -85, -83, -73, -83, -69, -42, -45, -57, -57, -38, -26, -30, -30, -21, -14, -14, -7, 0, -9, -14, -7, 0, 14, 19, 9, 9, 11, -9, -35, -33, -14, 0, 23, 42, 21, -16, -30, -40, -42, -30, -23, -19, -21, -49, -99, -78, 216, 756, 1061, 647, -66, -211, -4, -57, -154, -95, -57, -76, -66, -52]"
1713891205374429387,"[-69, -73, -45, -21, -33, -64, -76, -57, -21, 9, 38, 73, 102, 109, 116, 135, 123, 71, -4, -78, -111, -116, -138, -166, -171, -152, -135, -140, -133, -123, -135, -142, -133, -126, -121, -121, -116, -102, -95, -85, -69, -71, -78, -66, -52, -54, -61, -64, -64, -49, -40, -61, -90, -104, -107, -111, -121, -109, -88, -121, -197, -154, 185, 714, 923, 435, -214, -268, -92, -176, -254, -204, -192]"
1713891205935467212,"[-197, -157, -138, -145, -133, -114, -102, -85, -61, -54, -64, -42, 4, 47, 78, 102, 119, 126, 128, 116, 76, 19, -40, -85, -99, -92, -90, -92, -90, -83, -69, -49, -42, -47, -47, -35, -26, -16, -9, -9, -4, 2, 9, 19, 19, 16, 16, 19, 21, 23, 26, 16, 4, -2, -9, -19, -23, -21, -19, -28, -35, -40, -61, -78, -66, -54, -52, -49, -49, -45, -21, 4, 21]"
1713891206496474519,"[30, 16, 2, 9, 16, 16, 11, -4, -7, 0, -30, -92, -19, 428, 1149, 1437, 723, -166, -195, 21, -109, -140, -33, -40, -69, -38, -11, -7, -7, 0, 7, 14, 21, 38, 66, 73, 73, 114, 157, 169, 178, 195, 199, 188, 171, 133, 69, 19, 0, -9, -14, -19, -26, -23, -26, -45, -45, -23, -19, -26, -26, -21, -14, -9, -7, -2, -4, -11, -14, -16, -26, -30, -26]"
1713891207057512348,"[-19, -11, -4, -7, -11, -19, -21, -11, -4, -19, -38, -33, -16, -9, -4, -2, -2, 4, 14, 23, 30, 28, 26, 35, 49, 57, 59, 59, 61, 71, 83, 90, 90, 83, 80, 88, 97, 90, 76, 66, 61, 69, 90, 111, 116, 109, 107, 95, 61, 47, 59, 61, 59, 66, 73, 49, -19, 21, 487, 1268, 1542, 778, -97, -104, 99, -35, -78, 7, -16, -54, -21, 2, 0]"
1713891207618550173,"[2, 2, -7, -2, 4, 19, 35, 38, 47, 78, 109, 133, 157, 154, 145, 161, 173, 149, 107, 59, 26, 16, 11, 0, 0, 2, 7, 21, 21, 14, 26, 30, 23, 33, 45, 47, 54, 54, 47, 54, 52, 23, 19, 35, 40, 47, 59, 61, 57, 59, 64, 73, 80, 83, 83, 85, 88, 92, 97, 95, 88, 83, 90, 97, 99, 104, 109, 111, 111, 121, 123, 104, 92]"
1713891208179587998,"[99, 102, 97, 99, 99, 85, 73, 66, 54, 38, 19, 16, 45, 69, 71, 61, 45, 38, 35, 28, 23, 33, 35, 30, -2, -49, 104, 642, 1254, 1194, 349, -197, -16, 45, -128, -78, 4, -38, -30, 11, 7, 11, 45, 54, 57, 64, 76, 90, 99, 111, 135, 152, 161, 190, 221, 218, 226, 238, 223, 188, 147, 107, 76, 59, 49, 49, 54, 59, 59, 64, 73, 85, 85]"
1713891208740656341,"[88, 97, 102, 107, 116, 121, 119, 107, 95, 104, 104, 80, 73, 83, 83, 83, 88, 83, 66, 59, 57, 54, 64, 69, 61, 47, 26, 21, 38, 40, 35, 40, 40, 45, 52, 57, 54, 54, 61, 73, 80, 71, 57, 59, 71, 80, 80, 80, 69, 61, 80, 123, 152, 145, 116, 99, 99, 107, 109, 107, 107, 119, 126, 102, 54, 145, 561, 1137, 1247, 571, -71, -2, 140]"
1713891209301694166,"[0, -19, 49, 30, 11, 16, 14, 26, 47, 59, 59, 59, 71, 90, 109, 123, 133, 135, 135, 147, 178, 202, 188, 176, 178, 154, 114, 85, 42, 0, -11, -19, -26, -28, -38, -40, -26, -14, -9, 0, 7, 9, 21, 33, 40, 45, 42, 45, 57, 59, 59, 66, 64, 59, 64, 78, 83, 80, 76, 78, 88, 95, 97, 92, 85, 76, 73, 80, 88, 85, 80, 85, 95]"
1713891209862731991,"[97, 95, 99, 99, 99, 111, 119, 104, 78, 76, 92, 90, 83, 90, 80, 61, 61, 66, 78, 80, 80, 85, 85, 54, 19, 138, 537, 980, 942, 318, -123, 2, 78, -49, -30, 30, 4, 0, 21, 16, 4, 9, 19, 21, 21, 35, 47, 59, 76, 88, 107, 138, 164, 185, 195, 192, 183, 161, 130, 92, 52, 19, 4, -4, -14, -14, -11, -7, 2, 7, 7, 19, 26]"
1713891210423769820,"[26, 33, 35, 14, -11, -19, -21, -14, -2, 2, 4, 4, 11, 30, 40, 33, 26, 16, 7, 23, 38, 35, 40, 42, 47, 57, 57, 59, 59, 59, 64, 83, 109, 121, 111, 90, 76, 78, 78, 71, 64, 57, 57, 61, 38, -21, -2, 276, 771, 1035, 621, -57, -169, 30, -28, -99, -26, -16, -52, -21, 9, 4, 9, 21, 19, 33, 54, 71, 76, 54, 42, 85, 128]"
1713891210984838163,"[149, 178, 190, 190, 199, 190, 145, 78, 2, -52, -61, -64, -73, -73, -73, -69, -54, -45, -35, -26, -26, -19, -2, 7, 16, 23, 19, 23, 38, 47, 49, 49, 40, 42, 54, 57, 59, 61, 52, 38, 40, 57, 80, 92, 88, 69, 57, 61, 69, 69, 64, 61, 69, 78, 69, 9, -11, 235, 797, 1221, 895, 76, -211, 7, -11, -135, -73, -49, -95, -73, -40, -57, -59]"
1713891211545875988,"[-33, -26, -16, 4, 26, 38, 47, 64, 92, 133, 166, 166, 157, 166, 176, 161, 130, 90, 40, 4, 0, 0, -4, -9, -7, 0, 7, 14, 21, 28, 23, 19, 40, 71, 76, 61, 54, 61, 66, 73, 78, 80, 80, 78, 83, 90, 90, 90, 90, 92, 97, 99, 95, 95, 88, 57, 45, 71, 92, 104, 107, 85, 49, 45, 54, 54, 54, 59, 66, 73, 61, 14, 2]"
1713891212106913813,"[252, 821, 1256, 918, 107, -145, 73, 38, -80, -30, -2, -23, -7, 14, 14, 16, 35, 45, 52, 64, 73, 78, 95, 116, 130, 152, 183, 202, 218, 228, 211, 190, 164, 123, 83, 49, 19, -4, -16, -28, -33, -30, -23, -19, -16, -11, -9, -26, -45, -35, -21, -19, -14, -21, -30, -26, -16, -9, 2, 9, 9, 9, 14, 26, 38, 40, 38, 35, 40, 47, 52, 71, 97]"
1713891212667951638,"[107, 92, 73, 69, 73, 64, 42, 38, 52, 61, 59, 28, -30, 61, 502, 1071, 1123, 426, -152, -35, 90, -45, -45, 28, 0, -4, 38, 42, 35, 47, 52, 64, 85, 97, 97, 99, 119, 142, 169, 185, 173, 157, 173, 188, 164, 133, 104, 54, 19, 14, 2, -7, -4, -9, -9, 4, 16, 26, 28, 23, 30, 47, 54, 54, 54, 49, 52, 64, 66, 61, 59, 52, 40]"
1713891213229019981,"[40, 52, 52, 38, 21, 19, 21, 16, 0, -35, -47, -11, 23, 28, 14, -11, -26, -9, 4, 4, 7, 9, 11, 9, -26, -59, 114, 611, 1102, 954, 199, -192, -2, 11, -149, -102, -40, -73, -71, -45, -38, -26, -7, 9, 7, 11, 38, 57, 78, 104, 126, 145, 171, 197, 214, 223, 214, 204, 199, 161, 111, 85, 69, 59, 52, 47, 59, 59, 52, 61, 69, 71, 83]"
1713891213790057810,"[83, 78, 90, 99, 102, 102, 83, 64, 71, 73, 66, 76, 80, 73, 76, 83, 85, 90, 85, 69, 73, 99, 128, 135, 109, 64, 21, 11, 26, 28, 26, 33, 35, 38, 28, -16, 14, 328, 825, 1002, 516, -83, -107, 52, -42, -97, -28, -35, -71, -42, -23, -28, -19, -4, 0, 11, 26, 30, 26, 30, 64, 95, 111, 128, 149, 159, 164, 166, 152, 114, 78, 49, 30]"
1713891214351095635,"[23, 11, 4, 9, 11, 19, 33, 38, 35, 26, 16, 26, 40, 42, 40, 42, 40, 26, 9, 11, 16, 11, 19, 33, 38, 35, 35, 35, 42, 49, 47, 52, 73, 92, 99, 95, 76, 64, 59, 57, 64, 71, 73, 73, 69, 52, 11, 26, 288, 771, 1006, 597, -21, -104, 71, 0, -76, -14, 7, -9, 9, 21, 14, 23, 38, 40, 49, 61, 64, 73, 95, 104, 114]"
1713891214912163978,"[138, 149, 154, 169, 169, 145, 102, 33, -33, -66, -102, -147, -161, -157, -157, -145, -126, -111, -111, -114, -90, -66, -66, -59, -49, -52, -45, -33, -21, -11, -7, -9, -9, 0, 11, 14, 14, 16, 23, 28, 23, 11, 2, 2, 7, 19, 52, 83, 76, 52, 40, 42, 52, 54, 49, 54, 61, 66, 64, 33, -23, 59, 480, 1030, 1087, 426, -130, -35, 85, -38, -45, 19, -16]"
1713891215473201803,"[-40, -2, 14, 0, -11, -11, 2, 21, 35, 40, 38, 54, 85, 119, 152, 176, 188, 195, 190, 169, 130, 80, 21, -19, -35, -49, -69, -83, -88, -92, -92, -95, -107, -102, -85, -78, -78, -69, -52, -40, -38, -30, -23, -11, -2, -11, -7, 7, 4, 4, 11, 11, 14, 21, 40, 66, 76, 54, 35, 40, 40, 40, 52, 47, 33, 38, 40, 7, -52, 0, 402, 1035, 1211]"
1713891216034239628,"[533, -154, -102, 57, -78, -99, -21, -57, -80, -33, -19, -21, -2, 9, 14, 30, 45, 57, 80, 102, 126, 157, 178, 185, 202, 216, 211, 192, 152, 80, 11, -21, -33, -45, -52, -57, -66, -71, -69, -69, -69, -61, -64, -69, -52, -33, -30, -30, -26, -19, -7, 4, 9, 7, 4, 2, 4, 19, 21, 11, 11, 4, -19, -16, 2, -2, -7, 9, 16, 16, 28, 30, 26]"
1713891216595307971,"[30, 40, 42, 33, 19, 21, 54, 80, 78, 61, 40, 35, 47, 49, 35, 33, 40, 42, 38, -11, -30, 242, 880, 1380, 1018, 111, -176, 61, 16, -104, -16, 19, -21, -4, 14, 11, 30, 49, 54, 57, 59, 76, 104, 123, 140, 147, 149, 171, 209, 228, 230, 218, 183, 135, 76, 0, -47, -61, -76, -80, -69, -61, -59, -54, -47, -38, -28, -19, -14, -14, -11, -2, 9]"
1713891217156345800,"[19, 16, 11, 16, 21, 11, 9, 4, -11, -11, 7, 19, 26, 28, 23, 28, 42, 49, 52, 52, 54, 57, 64, 71, 76, 71, 64, 71, 88, 92, 88, 88, 90, 92, 95, 97, 102, 92, 83, 88, 97, 99, 102, 104, 102, 102, 107, 104, 76, 59, 78, 83, 80, 90, 88, 83, 88, 85, 78, 95, 111, 114, 104, 90, 83, 73, 61, 54, 40, 16, 14, 23, -9]"
1713891217717383625,"[-69, 7, 418, 1059, 1271, 597, -145, -111, 66, -69, -114, -42, -57, -66, -28, -14, -16, -4, 11, 21, 33, 47, 57, 73, 97, 119, 138, 161, 183, 197, 221, 238, 233, 223, 192, 140, 102, 73, 47, 38, 23, -7, -7, 11, 14, 14, 21, 30, 45, 47, 42, 45, 49, 54, 61, 57, 52, 57, 61, 59, 49, 49, 52, 47, 47, 59, 61, 57, 59, 59, 57, 57, 52]"
1713891218278421450,"[45, 38, 38, 47, 54, 47, 30, 16, -9, -26, -9, 4, -7, -16, -9, 4, 11, 16, 11, -7, -16, -4, 4, 7, 11, 14, 4, 11, 30, 33, 28, 30, 30, 14, -2, 9, 19, 2, -2, 14, 26, 42, 66, 78, 66, 52, 49, 54, 54, 49, 47, 40, 38, 45, 19, -52, 14, 437, 1064, 1268, 635, -99, -102, 85, -35, -83, -2, -16, -38, 4, 19, 11, 16]"
1713891218839489793,"[23, 30, 47, 66, 78, 83, 90, 114, 147, 166, 166, 159, 169, 190, 197, 176, 126, 54, -14, -59, -76, -92, -111, -121, -116, -107, -116, -135, -130, -119, -111, -102, -90, -76, -64, -59, -54, -40, -26, -16, -11, -14, -23, -19, 0, 7, 4, 7, 14, 21, 30, 38, 38, 35, 40, 52, 59, 61, 61, 61, 61, 71, 80, 85, 83, 85, 85, 88, 92, 92, 92, 92, 90]"
1713891219400527618,"[90, 83, 69, 66, 76, 73, 73, 76, 59, 35, 42, 71, 95, 111, 102, 80, 69, 66, 69, 49, 19, 14, 26, 26, 4, -45, -14, 335, 964, 1275, 728, -90, -199, -2, -116, -188, -88, -80, -119, -83, -54, -57, -38, -16, -14, 2, 23, 30, 38, 59, 80, 111, 149, 180, 207, 235, 252, 254, 247, 214, 159, 107, 54, 14, -11, -28, -35, -26, -19, -19, -7, 4, 7]"
1713891219961595961,"[7, 16, 30, 33, 28, 26, 21, 26, 35, 35, 28, 21, 16, 28, 40, 45, 42, 38, 38, 47, 59, 59, 57, 54, 45, 42, 54, 59, 52, 54, 64, 71, 78, 78, 61, 47, 54, 66, 69, 69, 61, 47, 45, 49, 42, 38, 35, 35, 40, 47, 49, 49, 45, 42, 52, 59, 52, 40, 38, 42, 47, 54, 59, 54, 47, 64, 95, 111, 111, 102, 83, 73, 80]"
1713891220522633790,"[88, 95, 83, 47, 14, 0, -38, -23, 283, 904, 1316, 878, 21, -169, 69, -11, -126, -38, -7, -35, -14, 0, -2, 19, 42, 45, 45, 52, 66, 85, 104, 121, 138, 154, 180, 218, 247, 259, 257, 247, 228, 192, 135, 80, 45, 21, 4, -7, -23, -33, -33, -38, -42, -30, -14, -14, -21, -19, -9, 0, -2, -4, 0, 0, 9, 23, 23, 21, 23, 14, -7, -14, 4]"
1713891221083671615,"[11, 4, 7, 19, 30, 35, 33, 21, 21, 33, 40, 30, 14, 11, 19, 26, 33, 38, 38, 42, 45, 49, 59, 61, 59, 61, 69, 73, 76, 76, 80, 80, 78, 83, 95, 95, 92, 95, 85, 71, 80, 85, 78, 80, 78, 71, 83, 104, 126, 133, 119, 104, 99, 95, 97, 102, 95, 97, 109, 95, 42, 19, 216, 733, 1216, 1014, 202, -195, 2, 30, -109, -76, -23]"
1713891221644709440,"[-61, -66, -42, -47, -49, -26, -11, -14, -11, -16, -14, 14, 42, 57, 88, 130, 166, 197, 216, 223, 221, 197, 157, 107, 57, 16, -11, -30, -33, -38, -49, -54, -45, -38, -30, -14, -9, -9, -4, 0, 14, 33, 35, 33, 38, 42, 49, 59, 69, 66, 61, 69, 78, 83, 76, 49, 23, 35, 57, 54, 52, 57, 52, 47, 57, 66, 66, 64, 66, 71, 78, 83, 85]"
1713891222205777783,"[76, 71, 80, 80, 76, 88, 95, 88, 97, 97, 76, 69, 66, 64, 71, 83, 85, 85, 71, 30, 9, 199, 723, 1230, 1054, 247, -159, 45, 76, -73, -33, 28, 0, 7, 42, 40, 33, 52, 69, 73, 88, 95, 92, 111, 142, 161, 180, 188, 178, 197, 233, 235, 216, 173, 104, 45, -4, -47, -66, -80, -97, -92, -78, -73, -69, -66, -61, -47, -38, -33, -23, -19, -16]"
1713891222766815608,"[-7, 9, 21, 23, 26, 26, 38, 49, 52, 38, 19, 14, 14, 14, 28, 33, 28, 28, 42, 52, 54, 59, 59, 57, 64, 73, 73, 76, 73, 73, 78, 83, 85, 83, 83, 85, 90, 95, 95, 85, 66, 47, 57, 69, 47, 35, 49, 57, 57, 69, 76, 71, 73, 78, 76, 71, 78, 92, 111, 126, 126, 111, 95, 90, 95, 92, 95, 99, 99, 99, 83, 28, 33]"
1713891223327853433,"[340, 971, 1390, 933, 45, -166, 61, -23, -130, -40, -19, -52, -26, -4, -7, 7, 21, 26, 35, 42, 54, 71, 85, 102, 116, 138, 173, 202, 216, 223, 218, 214, 185, 119, 54, -2, -49, -69, -78, -97, -102, -92, -90, -80, -69, -61, -57, -49, -45, -35, -21, -14, -11, -7, -2, 4, 19, 23, 23, 26, 28, 35, 47, 52, 47, 49, 47, 40, 40, 47, 47, 47, 49]"
1713891223888921780,"[59, 69, 66, 57, 42, 38, 49, 59, 59, 57, 57, 64, 71, 73, 76, 73, 71, 80, 88, 95, 95, 88, 83, 95, 95, 64, 33, 28, 33, 40, 52, 61, 64, 59, 61, 71, 78, 80, 80, 73, 71, 83, 104, 126, 135, 116, 97, 99, 102, 97, 95, 90, 92, 102, 104, 85, 33, 80, 445, 1037, 1268, 680, -69, -102, 92, -16, -71, 16, 9, -26, 7, 28, 16]"
1713891224449959605,"[16, 21, 19, 28, 45, 49, 47, 45, 47, 59, 88, 119, 140, 140, 142, 161, 161, 121, 54, 0, -33, -52, -61, -66, -71, -73, -69, -57, -42, -33, -28, -23, -16, -9, 0, 11, 11, 7, 11, 26, 35, 35, 35, 38, 42, 49, 59, 66, 69, 57, 45, 57, 69, 66, 61, 66, 69, 71, 80, 83, 83, 80, 83, 88, 92, 90, 88, 88, 88, 92, 95, 95, 90]"
1713891225010997430,"[90, 90, 92, 99, 99, 92, 92, 90, 78, 66, 47, 35, 42, 52, 54, 52, 38, 30, 40, 45, 47, 57, 57, 54, 61, 64, 64, 64, 73, 99, 119, 109, 99, 92, 80, 76, 80, 83, 85, 88, 83, 66, 33, 9, 195, 702, 1197, 1049, 271, -159, 33, 73, -71, -35, 11, -28, -21, 7, 2, 4, 7, -2, 2, 2, 2, 21, 38, 42, 57, 83, 111, 142, 159]"
1713891225572035255,"[164, 178, 178, 140, 102, 69, 21, -30, -66, -73, -66, -69, -76, -69, -57, -45, -33, -23, -19, -14, -7, 4, 11, 14, 16, 23, 28, 38, 47, 52, 49, 45, 38, 47, 61, 64, 54, 52, 59, 71, 71, 69, 66, 66, 71, 78, 80, 78, 71, 69, 76, 80, 83, 83, 73, 69, 78, 85, 88, 85, 76, 71, 78, 76, 64, 57, 54, 45, 26, 16, 30, 33, 23]"
1713891226133103598,"[26, 38, 45, 47, 38, 14, 11, 30, 38, 40, 42, 38, 40, 52, 61, 64, 57, 45, 45, 52, 66, 92, 104, 90, 78, 73, 69, 69, 61, 61, 71, 73, 76, 69, 19, -23, 166, 678, 1161, 1009, 235, -202, -26, 19, -128, -95, -42, -85, -76, -33, -30, -35, -21, -14, -16, -14, 2, 16, 23, 40, 59, 64, 83, 123, 152, 169, 190, 202, 190, 154, 102, 45, 7]"
1713891226694141423,"[-11, -30, -45, -49, -47, -40, -28, -30, -42, -47, -33, -23, -16, -11, -16, -14, -4, 7, 23, 26, 26, 33, 40, 45, 54, 59, 57, 57, 61, 66, 73, 78, 76, 73, 73, 78, 83, 78, 73, 78, 83, 88, 90, 83, 85, 85, 69, 66, 78, 76, 78, 88, 76, 52, 40, 47, 59, 59, 59, 69, 71, 66, 69, 76, 80, 83, 76, 61, 64, 69, 59, 59, 71]"
1713891227255179252,"[80, 85, 78, 49, 16, -19, -33, -19, -9, -11, -7, 2, -4, -40, -64, 128, 664, 1197, 1049, 230, -216, -21, 23, -123, -78, -14, -47, -42, -7, 0, 4, 19, 26, 35, 45, 57, 64, 64, 73, 99, 123, 149, 185, 223, 238, 223, 202, 192, 176, 128, 69, 26, 2, -14, -19, -11, -11, -16, -14, -2, 9, 16, 21, 16, 16, 33, 42, 45, 42, 23, 19, 38, 49]"
1713891227816217077,"[49, 59, 61, 52, 61, 78, 83, 78, 76, 73, 76, 80, 88, 83, 59, 47, 61, 69, 66, 69, 64, 61, 69, 73, 78, 78, 66, 61, 59, 59, 66, 66, 59, 59, 73, 80, 85, 83, 64, 42, 49, 69, 69, 59, 61, 61, 54, 57, 64, 61, 54, 59, 59, 52, 45, 35, 23, 30, 38, 33, 23, 11, 9, 19, 26, 26, 35, 59, 78, 78, 66, 59, 52]"
1713891228377285420,"[45, 47, 57, 61, 66, 69, 59, 23, -4, 152, 640, 1180, 1123, 349, -183, -26, 64, -88, -78, -23, -54, -45, -7, -11, -9, 9, 21, 30, 42, 52, 47, 33, 38, 71, 95, 111, 145, 183, 207, 221, 223, 223, 214, 171, 123, 88, 52, 23, 14, 7, 4, -4, -14, -4, 7, 9, 19, 35, 38, 38, 42, 47, 54, 64, 61, 64, 71, 73, 76, 83, 80, 80, 85]"
1713891228938323245,"[88, 90, 90, 85, 88, 85, 78, 78, 69, 35, 19, 26, 28, 30, 33, 35, 40, 49, 52, 54, 54, 54, 52, 30, 9, 21, 30, 26, 38, 47, 30, 19, 26, 30, 38, 40, 35, 26, 11, 7, 4, 2, -7, -19, -14, 0, 4, 4, 7, 11, 16, 21, 28, 33, 19, 11, 23, 40, 45, 42, 40, 47, 49, 42, 45, 59, 78, 97, 97, 78, 66, 57, 47]"
1713891229499361070,"[52, 49, 40, 49, 57, 26, -40, -49, 204, 778, 1244, 968, 123, -230, -4, -4, -169, -140, -85, -99, -78, -45, -49, -45, -21, -9, 2, 23, 35, 33, 47, 76, 99, 109, 130, 161, 192, 223, 245, 252, 235, 195, 145, 92, 47, 23, 0, -28, -33, -19, -11, -9, -2, -4, 0, 14, 21, 26, 30, 26, 28, 47, 61, 61, 61, 57, 47, 57, 71, 71, 66, 64, 73]"
1713891230060398895,"[83, 83, 78, 73, 71, 73, 76, 76, 71, 49, 35, 52, 64, 57, 49, 33, 14, 16, 23, 23, 26, 28, 23, 16, 0, -14, -19, -21, -21, -11, -2, 2, 4, 2, 2, 14, 26, 30, 30, 30, 33, 38, 42, 47, 59, 80, 95, 92, 80, 76, 69, 66, 71, 76, 83, 85, 80, 52, -4, 28, 380, 1021, 1380, 873, 21, -133, 92, 7, -78, 14, 23, -9, 26]"
