time,ecg
1713890671274371000,"[16162, 16769, 17343, 17759, 18114, 18497, 18838, 19107, 19376, 19497, 19497, 19497, 19497, 19497, 19497, 19497, 19497, 19497, 19497, 19497, 19497, 19497, 19497, 19497, 19497, 19497, 19497, 19497, 19497, 19497, 19497, 19497, 19497, 19497, 19497, 19497, 19497, 19497, 19497, 19497, 19497, 19497, 19497, 19497, 19497, 19497, 19497, 19497, 19497, 19497, 19497, 19290, 19154, 19102, 19009, 18904, 18674, 18421, 18397, 18333, 18074, 17950, 17938, 17705, 17486, 17436, 17255, 17014, 16931, 16788, 16481, 16253, 16079]"
1713890671835439343,"[15917, 15810, 15608, 15386, 15277, 15136, 14967, 14851, 14715, 14479, 14234, 14120, 14096, 13953, 13694, 13532, 13418, 13244, 13111, 13030, 12903, 12713, 12558, 12451, 12311, 12156, 12030, 11901, 11778, 11620, 11411, 11285, 11204, 11073, 10944, 10823, 10675, 10537, 10414, 10273, 10138, 10028, 9926, 9807, 9666, 9519, 9350, 9147, 9154, 9647, 10309, 10247, 9238, 8412, 8390, 8383, 8131, 8059, 8014, 7848, 7764, 7729, 7600, 7476, 7417, 7333, 7233, 7153, 7064, 6976, 6898, 6810, 6734]"
1713890672396507686,"[6676, 6591, 6500, 6467, 6448, 6365, 6260, 6177, 6110, 6031, 5943, 5858, 5717, 5529, 5408, 5346, 5270, 5196, 5124, 5055, 4998, 4936, 4848, 4775, 4722, 4672, 4613, 4548, 4501, 4451, 4387, 4334, 4296, 4227, 4153, 4125, 4096, 4013, 3925, 3884, 3827, 3737, 3687, 3658, 3613, 3603, 3591, 3511, 3406, 3342, 3306, 3265, 3213, 3168, 3127, 3080, 3034, 2999, 2927, 2808, 2877, 3387, 4032, 4034, 3180, 2501, 2592, 2670, 2477, 2442, 2475, 2397, 2349]"
1713890672957576029,"[2370, 2347, 2306, 2294, 2280, 2258, 2235, 2211, 2197, 2163, 2113, 2104, 2106, 2087, 2061, 2039, 2044, 2042, 2028, 2028, 2011, 1970, 1935, 1880, 1806, 1747, 1704, 1654, 1606, 1575, 1554, 1549, 1540, 1513, 1499, 1492, 1482, 1471, 1461, 1447, 1432, 1423, 1411, 1397, 1378, 1363, 1356, 1337, 1313, 1304, 1306, 1294, 1278, 1263, 1247, 1233, 1216, 1199, 1197, 1187, 1152, 1123, 1133, 1147, 1137, 1109, 1080, 1059, 1052, 1044, 1037, 1030, 1016]"
1713890673518644372,"[1011, 1006, 983, 935, 954, 1240, 1732, 1890, 1344, 711, 709, 868, 740, 671, 728, 721, 702, 711, 687, 652, 659, 668, 659, 661, 668, 664, 671, 695, 699, 695, 704, 721, 733, 747, 761, 766, 761, 764, 768, 761, 730, 683, 637, 606, 578, 552, 535, 523, 511, 511, 518, 518, 507, 492, 490, 499, 509, 511, 509, 502, 499, 509, 514, 511, 507, 490, 487, 499, 504, 499, 495, 468, 435]"
1713890674079712715,"[433, 449, 452, 449, 435, 426, 440, 449, 442, 418, 395, 395, 421, 440, 423, 395, 392, 404, 414, 411, 418, 423, 399, 385, 395, 364, 433, 835, 1373, 1402, 737, 223, 333, 409, 257, 268, 349, 318, 295, 309, 299, 285, 288, 278, 264, 273, 285, 304, 321, 316, 318, 340, 357, 371, 392, 414, 426, 430, 437, 445, 447, 440, 411, 361, 292, 238, 228, 218, 204, 209, 209, 209, 223]"
1713890674640781062,"[238, 240, 226, 207, 211, 240, 242, 209, 192, 211, 242, 259, 240, 211, 230, 261, 268, 259, 242, 245, 261, 266, 271, 283, 288, 276, 259, 261, 273, 273, 299, 333, 318, 278, 268, 278, 266, 233, 242, 257, 252, 259, 268, 252, 230, 318, 673, 1118, 1123, 516, 16, 138, 278, 147, 130, 211, 154, 78, 107, 119, 92, 111, 138, 135, 138, 159, 164, 152, 169, 192, 211, 230, 249]"
1713890675201849405,"[273, 304, 309, 314, 340, 357, 352, 345, 328, 271, 197, 145, 119, 107, 99, 97, 104, 114, 126, 135, 142, 152, 161, 171, 173, 164, 157, 164, 176, 180, 173, 178, 176, 159, 169, 188, 190, 190, 188, 180, 180, 190, 195, 188, 192, 226, 235, 211, 188, 159, 157, 159, 135, 147, 183, 190, 183, 169, 133, 95, 209, 666, 1242, 1228, 442, -88, 104, 192, 4, 4, 66, 35, 38]"
1713890675762917748,"[71, 57, 47, 78, 97, 95, 99, 88, 83, 111, 128, 140, 159, 164, 169, 192, 202, 207, 228, 226, 218, 233, 238, 216, 171, 119, 95, 83, 59, 57, 61, 54, 64, 88, 102, 104, 102, 104, 114, 130, 133, 114, 80, 78, 102, 114, 111, 109, 107, 99, 111, 128, 130, 128, 123, 114, 123, 145, 169, 185, 176, 149, 140, 152, 157, 149, 140, 142, 154, 166, 159, 114, 83]"
1713890676323986091,"[316, 923, 1397, 1014, 149, -61, 188, 109, -14, 69, 71, 7, 45, 80, 66, 76, 95, 95, 109, 126, 130, 140, 154, 157, 169, 192, 185, 183, 221, 242, 235, 240, 257, 259, 242, 216, 188, 152, 116, 76, 49, 45, 42, 45, 61, 69, 73, 83, 92, 99, 107, 99, 88, 92, 104, 104, 104, 102, 104, 114, 121, 123, 116, 116, 133, 123, 107, 121, 135, 147, 171, 159, 119]"
1713890676885054434,"[119, 130, 111, 102, 109, 114, 121, 114, 85, 54, 99, 457, 1080, 1287, 604, -97, 4, 190, 23, -9, 61, 21, 14, 57, 52, 47, 64, 40, 2, 14, 21, -7, -4, 28, 42, 45, 59, 85, 109, 114, 109, 130, 152, 145, 147, 157, 140, 104, 78, 52, 26, 23, 26, 19, 21, 35, 49, 59, 64, 66, 59, 52, 57, 59, 54, 54, 54, 61, 73, 83, 85, 85, 78]"
1713890677446092259,"[78, 90, 107, 102, 83, 90, 109, 92, 73, 85, 95, 97, 99, 99, 109, 116, 92, 61, 76, 318, 866, 1228, 759, -57, -142, 140, 52, -49, 40, 52, 16, 47, 88, 88, 66, 71, 92, 104, 116, 114, 95, 95, 121, 123, 114, 126, 147, 140, 138, 166, 188, 176, 152, 138, 116, 90, 71, 26, -14, -2, 4, -7, 11, 26, 4, 19, 54, 57, 38, 28, 49, 76, 61]"
1713890678007160606,"[47, 73, 78, 61, 71, 64, 35, 49, 80, 80, 78, 73, 42, 7, 4, 9, 16, 38, 45, 40, 49, 38, 45, 285, 690, 849, 511, 42, -16, 85, 23, 0, 64, 66, 9, 33, 102, 73, 52, 88, 92, 97, 116, 121, 109, 95, 114, 147, 140, 123, 142, 149, 123, 123, 145, 157, 142, 95, 61, 71, 30, -33, -19, -4, -33, -21, 2, -11, -11, 21, 16, 0, 23]"
1713890678568228949,"[35, 33, 38, 45, 19, -28, -21, 14, 9, -7, -2, -11, 0, 30, 9, -11, 11, 19, 11, 52, 90, 38, -16, 30, 52, 40, 285, 735, 909, 549, 28, -61, 92, 49, -7, 35, 28, 9, 23, 33, 54, 59, 54, 85, 102, 95, 104, 119, 121, 138, 149, 140, 138, 161, 188, 180, 166, 180, 195, 188, 178, 154, 111, 61, 19, 14, 28, 11, -4, -2, -11, -16, -4]"
1713890679129312551,"[-7, -11, 7, 21, 21, 30, 33, 7, -30, -52, -40, -21, -28, -42, -28, -4, 7, 21, 35, 19, 2, 14, 19, 19, 38, 45, 38, 33, 23, -16, 33, 433, 1044, 1140, 430, -135, 4, 111, -47, -33, 49, 21, 14, 45, 42, 49, 73, 85, 88, 95, 104, 114, 121, 133, 140, 135, 138, 154, 161, 157, 157, 161, 164, 145, 133, 145, 130, 85, 64, 69, 66, 66, 59]"
1713890679690335117,"[49, 61, 76, 78, 85, 88, 76, 73, 85, 95, 97, 78, 57, 69, 85, 88, 92, 88, 69, 76, 107, 109, 80, 64, 64, 59, 52, 42, 33, 26, 28, 11, -21, 119, 580, 1040, 854, 104, -178, 88, 76, -88, -23, 35, -4, 7, 33, 21, 33, 52, 35, 42, 64, 59, 64, 76, 64, 61, 76, 88, 104, 126, 135, 142, 147, 138, 149, 188, 183, 133, 102, 80, 61]"
1713890680251403460,"[61, 66, 61, 57, 61, 73, 83, 88, 83, 78, 88, 92, 90, 92, 78, 59, 59, 61, 76, 95, 90, 97, 121, 119, 92, 90, 95, 92, 99, 107, 107, 107, 99, 54, 28, 278, 859, 1202, 709, -42, -83, 128, -4, -85, -7, -2, -16, 4, -11, -33, -7, 26, 26, 28, 49, 64, 73, 90, 109, 121, 128, 130, 142, 161, 171, 169, 173, 180, 185, 183, 166, 138, 102]"
1713890680812471803,"[71, 52, 52, 57, 49, 33, 28, 33, 42, 45, 47, 54, 52, 54, 69, 76, 78, 80, 80, 85, 95, 97, 95, 99, 126, 149, 140, 109, 99, 107, 109, 109, 99, 92, 95, 80, 42, 135, 540, 1042, 1011, 304, -145, 69, 164, -4, 0, 59, 30, 33, 69, 76, 66, 69, 71, 69, 73, 80, 80, 88, 107, 119, 123, 128, 123, 128, 152, 171, 173, 178, 178, 178, 176]"
1713890681373540150,"[157, 133, 97, 47, 28, 45, 52, 49, 54, 59, 57, 61, 69, 76, 78, 76, 76, 83, 95, 97, 92, 90, 92, 85, 78, 95, 99, 85, 97, 126, 142, 142, 116, 76, 64, 78, 90, 90, 88, 80, 66, 64, 235, 683, 1037, 747, 76, -83, 166, 138, 9, 71, 111, 78, 83, 92, 73, 71, 85, 99, 111, 123, 130, 123, 111, 116, 121, 121, 130, 142, 154, 169, 176]"
1713890681934608493,"[180, 178, 180, 183, 171, 140, 102, 61, 30, 23, 28, 21, -2, -19, -19, -14, 2, 16, 14, 19, 30, 33, 42, 52, 49, 47, 35, 9, 16, 35, 35, 42, 57, 73, 97, 114, 99, 73, 73, 90, 90, 85, 102, 99, 90, 83, 97, 328, 795, 994, 528, -76, -69, 152, 57, -9, 76, 78, 49, 78, 92, 78, 88, 114, 119, 107, 114, 133, 140, 142, 152, 161, 161]"
1713890682495676836,"[166, 169, 173, 178, 171, 159, 157, 154, 140, 99, 52, 21, -7, -26, -23, -23, -21, -7, 0, -21, -35, -26, -7, 9, 19, 26, 30, 33, 45, 59, 61, 59, 66, 71, 76, 83, 85, 80, 85, 111, 116, 88, 76, 78, 80, 85, 90, 97, 97, 78, 73, 278, 776, 1142, 804, 76, -102, 147, 119, 0, 69, 99, 61, 80, 114, 114, 119, 128, 123, 111, 111, 128, 138]"
1713890683056745179,"[140, 149, 166, 173, 180, 180, 164, 154, 166, 176, 173, 171, 154, 99, 52, 28, 0, -28, -42, -42, -33, -16, -2, 0, 2, 14, 26, 30, 28, 21, 16, 19, 33, 47, 54, 49, 49, 49, 54, 73, 99, 109, 114, 109, 83, 66, 78, 88, 76, 78, 97, 88, 28, 54, 430, 1097, 1347, 664, -97, -35, 154, -16, -52, 54, 33, 2, 40, 59, 59, 78, 92, 83, 76]"
1713890683617813522,"[88, 104, 123, 145, 149, 126, 99, 123, 152, 116, 95, 119, 128, 133, 140, 119, 64, 11, -19, -47, -71, -78, -78, -69, -49, -38, -33, -23, -14, -9, 0, 9, 14, 14, 19, 23, 26, 35, 40, 30, 33, 59, 83, 104, 107, 78, 59, 71, 83, 83, 90, 85, 57, 9, -7, 276, 990, 1513, 1016, 16, -166, 145, 45, -92, 21, 49, 2, 38, 69, 57, 54, 42, 42]"
1713890684178881865,"[66, 78, 80, 85, 85, 99, 119, 114, 114, 130, 135, 123, 128, 126, 111, 114, 107, 61, 14, -19, -40, -59, -64, -52, -49, -49, -35, -21, -16, -19, -14, 0, 7, 0, 7, 21, 19, 19, 30, 30, 26, 42, 61, 78, 85, 57, 40, 54, 59, 54, 66, 73, 57, -2, -61, 183, 959, 1635, 1204, 109, -195, 114, 40, -142, -64, -14, -54, -28, 23, 23, 14, 21, 33]"
1713890684739950212,"[47, 57, 54, 54, 52, 54, 66, 80, 107, 130, 123, 133, 159, 157, 138, 123, 97, 66, 38, 11, -9, -33, -49, -42, -26, -21, -11, -7, -14, -7, 9, 14, 7, 0, 2, 9, 14, 23, 38, 30, 16, 30, 69, 92, 97, 78, 54, 59, 69, 69, 71, 69, 64, 42, -19, 38, 504, 1204, 1273, 404, -230, -16, 116, -80, -76, 14, -16, -28, 0, 0, 9, 38, 49]"
1713890685301018555,"[59, 69, 59, 73, 104, 116, 128, 135, 128, 135, 164, 185, 192, 173, 130, 123, 138, 95, 30, -7, -35, -52, -49, -45, -49, -57, -54, -45, -42, -33, -7, 0, -14, -11, 7, 19, 14, 9, 16, 30, 38, 40, 38, 35, 45, 57, 64, 64, 47, 28, 30, 40, 52, 66, 80, 92, 78, 42, 38, 52, 52, 54, 61, 69, 57, 2, 66, 533, 1204, 1254, 428, -171, 9]"
1713890685862056380,"[119, -59, -30, 61, 14, -4, 40, 47, 45, 57, 52, 33, 33, 57, 76, 69, 52, 59, 71, 76, 80, 90, 107, 121, 126, 133, 140, 135, 116, 90, 59, 26, 0, -11, -16, -23, -33, -33, 0, 19, -7, -23, -16, -21, -14, 11, 11, 7, 7, -9, -9, 16, 28, 26, 38, 49, 52, 57, 71, 85, 80, 80, 92, 95, 88, 95, 107, 114, 111, 97, 99, 109, 102]"
1713890686423124723,"[90, 107, 130, 149, 161, 154, 121, 80, 57, 64, 85, 88, 73, 47, 0, 64, 516, 1187, 1259, 437, -188, -28, 83, -88, -85, -9, -45, -57, -16, -4, -23, -21, -7, -14, -19, 7, 38, 76, 123, 130, 109, 152, 221, 254, 285, 314, 321, 326, 330, 326, 311, 283, 233, 173, 111, 80, 76, 66, 52, 42, 38, 38, 42, 49, 52, 49, 38, 33, 49, 66, 61, 49, 33]"
1713890686984193066,"[35, 61, 73, 61, 45, 21, -9, -4, 30, 45, 23, 16, 35, 47, 35, 30, 47, 64, 73, 76, 54, 47, 66, 64, 61, 59, 9, -14, 23, 28, 9, 21, 16, -9, -14, 2, 19, 26, 30, 16, -40, -7, 361, 945, 1135, 559, -88, -76, 90, -14, -42, 28, 7, 0, 42, 45, 52, 76, 61, 61, 99, 99, 80, 85, 107, 123, 138, 164, 176, 178, 197, 214, 221]"
1713890687545261409,"[221, 214, 233, 242, 218, 190, 152, 85, 26, 23, 38, 19, 16, 33, 26, 23, 38, 40, 23, 0, -11, -16, -23, -7, 0, -14, -9, 0, -11, 7, 28, -2, -11, 4, -19, -19, 9, 0, -7, 11, 4, 2, 26, 28, 14, 21, 35, 38, 40, 35, 38, 54, 59, 38, 23, 38, 52, 49, 47, 59, 66, 61, 64, 73, 83, 114, 142, 133, 102, 83, 90, 104, 107]"
1713890688106304325,"[95, 90, 83, 45, 102, 459, 971, 1066, 452, -119, -30, 88, -73, -78, 9, -19, -26, 16, 11, 14, 47, 64, 64, 71, 88, 104, 114, 116, 114, 123, 140, 161, 180, 183, 176, 178, 173, 171, 178, 171, 142, 123, 104, 59, 7, -28, -40, -35, -28, -28, -21, -16, -26, -11, 11, 16, 19, 21, 19, 26, 28, 40, 57, 47, 33, 49, 64, 61, 66, 64, 57, 61, 76]"
1713890688667367581,"[88, 90, 66, 38, 40, 54, 59, 59, 40, 21, 35, 54, 54, 57, 54, 52, 66, 73, 71, 71, 76, 71, 69, 78, 97, 97, 83, 85, 85, 64, 69, 104, 109, 83, 64, 42, 19, 4, -4, -2, 16, 0, -35, 111, 528, 904, 759, 130, -185, 14, 64, -69, -30, 33, 7, 2, 19, 26, 49, 66, 69, 69, 78, 95, 99, 107, 126, 123, 90, 92, 133, 140, 142]"
1713890689228435924,"[173, 190, 185, 197, 209, 202, 171, 138, 119, 90, 54, 26, -9, -30, -11, 2, 11, 9, -7, -2, 19, 26, 30, 33, 30, 38, 45, 28, 9, 11, 16, 7, 16, 33, 21, 11, 11, 7, 11, 4, -2, 11, 21, 16, 28, 30, 16, 28, 45, 23, 33, 64, 54, 52, 69, 69, 83, 95, 54, 26, 33, 30, 45, 85, 95, 69, 61, 71, 71, 76, 92, 114, 128]"
1713890689789504267,"[128, 116, 95, 80, 80, 78, 69, 73, 80, 45, -11, 54, 397, 909, 1044, 466, -121, -49, 104, -30, -57, 30, 21, 7, 40, 42, 38, 45, 52, 61, 61, 59, 73, 83, 85, 78, 90, 135, 157, 161, 183, 192, 207, 223, 216, 214, 235, 230, 185, 138, 92, 52, 21, -23, -59, -54, -52, -57, -28, -11, -19, -19, -16, -19, -4, 11, 14, 21, 28, 26, 28, 35, 35]"
1713890690350572610,"[26, 38, 64, 59, 71, 80, 40, 19, 40, 38, 26, 40, 33, 16, 52, 80, 47, 26, 49, 73, 76, 85, 104, 99, 88, 88, 97, 107, 97, 76, 71, 80, 92, 114, 147, 166, 154, 130, 119, 104, 73, 49, 52, 52, 30, -2, 7, 254, 802, 1135, 683, -69, -178, 49, -26, -116, -38, -9, -35, -23, 9, 21, 14, 33, 64, 66, 64, 92, 114, 123, 138, 149, 161]"
1713890690911640953,"[178, 202, 221, 223, 223, 245, 268, 259, 245, 214, 169, 130, 85, 35, 2, -26, -40, -38, -38, -33, -21, -26, -30, -9, 11, 21, 16, 11, 19, 33, 40, 38, 26, 16, 16, 23, 33, 42, 28, -4, -7, 16, 21, 26, 33, 33, 42, 57, 45, 28, 45, 61, 57, 64, 69, 61, 57, 59, 57, 49, 71, 92, 59, 30, 57, 80, 85, 88, 54, 14, 11, 9, 0]"
1713890691472709300,"[14, 26, -14, -76, 66, 597, 1194, 1111, 273, -252, -64, 26, -126, -121, -66, -78, -61, -16, -16, -47, -42, -11, 4, 2, 2, 21, 45, 45, 57, 80, 85, 97, 130, 145, 161, 185, 197, 202, 211, 214, 211, 173, 88, 33, 28, 9, -23, -35, -30, -21, -14, -9, -2, 0, -11, -9, 2, -2, 2, 11, 11, 26, 47, 42, 35, 47, 59, 57, 52, 52, 57, 61, 64]"
1713890692033777643,"[64, 71, 71, 64, 61, 73, 76, 73, 78, 61, 30, 33, 54, 59, 57, 52, 38, 28, 30, 35, 30, 16, 4, 14, -14, -104, -154, 45, 609, 1185, 1025, 149, -285, -52, -16, -161, -102, -47, -92, -80, -35, -35, -33, -7, 7, 7, 7, 21, 42, 57, 64, 78, 102, 130, 154, 176, 192, 209, 228, 245, 247, 238, 221, 192, 152, 102, 64, 35, 4, -9, 2, 9, 14]"
1713890692594815468,"[16, 14, 21, 38, 38, 21, 7, -7, -4, 14, 21, 23, 26, 23, 28, 40, 47, 38, 7, -9, 9, 26, 28, 38, 40, 30, 35, 54, 57, 52, 57, 57, 59, 76, 83, 85, 80, 69, 71, 85, 99, 97, 71, 57, 73, 85, 97, 123, 138, 128, 109, 83, 71, 76, 71, 66, 76, 69, 21, -23, 104, 571, 1106, 1028, 235, -235, -21, 45, -123, -92, -28, -66, -66]"
1713890693155883811,"[-28, -21, -14, 4, 14, 16, 30, 49, 66, 66, 54, 59, 85, 111, 133, 145, 152, 169, 183, 180, 195, 204, 178, 154, 140, 104, 61, 28, -2, -21, -26, -23, -14, -7, -2, 4, 7, 14, 26, 26, 28, 35, 38, 45, 52, 57, 57, 59, 69, 71, 66, 69, 71, 76, 78, 80, 80, 83, 88, 90, 71, 61, 69, 71, 73, 78, 78, 83, 83, 80, 85, 90, 85]"
1713890693716952154,"[88, 92, 85, 64, 47, 47, 57, 40, 21, 35, 45, 40, 57, 85, 95, 95, 76, 42, 40, 45, 30, 30, 40, 21, -21, -52, 104, 606, 1114, 947, 147, -247, -14, 30, -121, -71, -16, -59, -47, -4, -7, -9, 7, 16, 23, 40, 57, 66, 73, 83, 102, 109, 109, 121, 147, 166, 180, 199, 207, 199, 199, 202, 192, 173, 135, 88, 57, 42, 26, -7, -28, -23, -21]"
1713890694278020497,"[-23, -4, 14, 7, -14, -21, -7, 9, 21, 23, 9, -2, 14, 35, 40, 42, 38, 35, 52, 61, 61, 59, 54, 57, 71, 76, 80, 83, 73, 73, 83, 90, 95, 92, 85, 88, 97, 102, 104, 104, 95, 92, 95, 83, 83, 85, 76, 80, 92, 92, 88, 95, 111, 130, 138, 119, 99, 88, 71, 66, 80, 64, 26, -2, -47, 33, 464, 1028, 1061, 333, -247, -99, 38]"
1713890694839088844,"[-109, -114, -47, -78, -78, -30, -26, -28, -9, 0, 7, 28, 49, 40, 23, 40, 64, 76, 97, 121, 128, 140, 161, 183, 190, 183, 176, 180, 178, 157, 121, 85, 59, 21, -9, -7, 7, 0, -14, -7, 14, 26, 35, 42, 33, 28, 42, 57, 61, 71, 59, 38, 57, 78, 40, 0, 19, 52, 64, 61, 59, 71, 73, 52, 54, 69, 59, 47, 49, 54, 66, 76, 69]"
1713890695400126669,"[69, 71, 66, 69, 80, 85, 88, 92, 95, 80, 59, 52, 52, 47, 47, 61, 78, 85, 107, 99, 52, 40, 57, 52, 38, 23, 16, 7, -38, -49, 209, 742, 1042, 628, -71, -195, 23, -35, -119, -38, -26, -61, -26, -9, -19, -14, -16, -14, 14, 30, 21, 26, 47, 66, 83, 97, 104, 99, 107, 133, 152, 154, 159, 159, 154, 157, 154, 123, 90, 61, 38, 21, 19]"
1713890695961195012,"[11, 4, 21, 28, 26, 28, 26, 23, 4, -7, 7, 23, 26, 23, 26, 23, 4, 4, 30, 30, 19, 30, 40, 40, 52, 59, 47, 42, 59, 73, 69, 59, 61, 76, 83, 80, 80, 78, 54, 38, 57, 73, 61, 49, 57, 69, 80, 95, 97, 80, 59, 40, 35, 42, 45, 35, 33, 35, 9, -33, 57, 433, 892, 875, 247, -185, -26, 64, -69, -47, 19, -9, -14]"
1713890696522263355,"[19, 30, 33, 54, 49, 16, 16, 38, 52, 76, 88, 73, 69, 92, 121, 145, 159, 169, 183, 199, 192, 185, 197, 180, 142, 116, 90, 59, 33, 19, 14, -7, -30, -19, -4, -9, 0, 23, 23, -2, -7, 14, 19, 21, 35, 45, 47, 47, 47, 54, 69, 69, 59, 61, 66, 73, 85, 85, 85, 85, 80, 85, 95, 97, 90, 88, 95, 99, 99, 99, 92, 95, 116]"
1713890697083331698,"[121, 107, 90, 71, 64, 66, 59, 49, 38, 14, -7, -30, 21, 318, 764, 875, 366, -171, -107, 76, -38, -80, 2, -14, -64, -47, -23, -23, -7, 7, -2, 2, 28, 45, 49, 66, 88, 99, 116, 142, 166, 176, 192, 207, 207, 214, 221, 209, 195, 169, 126, 90, 59, 28, 21, 16, 11, 16, 21, 28, 40, 40, 30, 35, 45, 40, 40, 47, 52, 59, 57, 52, 57]"
1713890697644400041,"[61, 66, 73, 71, 64, 59, 42, 42, 61, 64, 57, 57, 61, 78, 85, 73, 57, 30, 26, 61, 85, 78, 66, 49, 33, 40, 52, 49, 47, 52, 59, 47, 21, 85, 388, 806, 859, 316, -152, -35, 95, -45, -66, 2, -21, -38, -16, -16, -14, 9, 19, 19, 21, 23, 30, 47, 64, 78, 85, 95, 119, 149, 169, 176, 178, 188, 190, 192, 192, 166, 121, 85, 64]"
1713890698205442957,"[42, 21, -7, -30, -28, -11, -7, -4, 7, -9, -33, -23, -21, -35, -23, -19, -21, -4, 16, 21, 16, 14, 19, 30, 38, 42, 45, 40, 42, 54, 64, 64, 57, 54, 61, 64, 66, 85, 102, 107, 119, 107, 80, 73, 66, 64, 78, 88, 88, 83, 42, 23, 218, 668, 985, 676, 40, -78, 157, 99, -14, 52, 66, 23, 40, 64, 66, 76, 85, 92, 102, 102, 95]"
1713890698766506213,"[97, 97, 78, 57, 69, 95, 97, 92, 99, 111, 116, 107, 85, 71, 54, 30, 11, -14, -49, -66, -66, -64, -57, -57, -49, -30, -21, -21, -26, -26, -2, 30, 26, 9, 11, 14, 7, 7, 7, 4, 16, 49, 61, 35, 23, 59, 85, 64, 45, 52, 57, 69, 83, 73, 61, 76, 90, 83, 69, 54, 52, 66, 114, 159, 140, 104, 97, 59, -7, -9, 40, 45, 30]"
1713890699327574556,"[40, 0, -35, 223, 835, 1252, 856, 61, -142, 38, -52, -121, 11, 33, -49, -42, -2, 4, 14, 28, 35, 57, 66, 47, 45, 66, 92, 123, 135, 133, 142, 161, 183, 218, 221, 185, 207, 230, 171, 116, 90, 49, 26, 21, -11, -33, -9, -14, -45, -40, -19, -19, -28, -28, -26, -49, -64, 9, 52, -23, -85, -92, -76, -19, -9, -38, -26, -33, -49, -11, 33, 26, 0]"
1713890699888642899,"[7, 28, 23, 7, 7, 33, 23, 21, 88, 102, 57, 45, 40, 40, 59, 66, 52, 42, 45, 16, -61, 38, 573, 1240, 1199, 359, -145, 47, 99, -71, -47, 14, -11, 4, 45, 30, 26, 59, 69, 59, 83, 97, 92, 111, 133, 123, 140, 183, 183, 164, 176, 204, 216, 192, 152, 152, 161, 121, 66, 19, -9, -7, 2, 0, 0, 7, 9, 14, 23, 33, 35, 28, 28]"
1713890700449711242,"[45, 64, 54, 33, 26, 38, 47, 40, 23, 2, -28, -45, -42, -33, -26, -28, -33, -23, -19, -14, 7, 9, -4, 0, 9, 16, 26, 16, 2, 9, 7, -7, 4, 38, 76, 61, 14, 11, 14, -42, -107, -111, -95, -119, -173, -228, -257, -45, 523, 964, 623, -114, -254, -7, -59, -135, -21, -2, -47, 0, 57, 80, 97, 85, 80, 119, 135, 123, 142, 185, 207, 204, 199]"
1713890701010779585,"[202, 223, 252, 257, 252, 261, 242, 199, 188, 178, 140, 107, 71, 38, 35, 30, 9, 7, 19, 19, 33, 54, 52, 47, 61, 69, 66, 64, 64, 71, 71, 57, 45, 45, 40, 38, 45, 42, 23, 4, -19, -28, -16, -19, -35, -14, 19, -2, -33, -7, 35, 42, 21, 4, 11, 35, 47, 57, 71, 76, 71, 69, 66, 64, 69, 83, 88, 73, 52, 45, 45, 35, 33]"
1713890701571847932,"[52, 69, 52, 0, -47, 121, 649, 1156, 954, 154, -195, 35, 52, -90, -38, 9, -30, -14, 23, 23, 26, 45, 47, 40, 52, 76, 88, 90, 99, 123, 147, 157, 145, 138, 159, 183, 190, 197, 197, 185, 171, 147, 111, 78, 45, 11, 2, 9, 16, 21, 23, 21, 28, 52, 54, 19, -11, -7, 16, 23, 19, 19, 14, 11, 16, 16, -2, -19, -16, -19, -23, -11, 0]"
1713890702132916275,"[4, 7, -2, -2, 14, 30, 28, 19, 21, 26, 38, 57, 49, 26, 23, 40, 57, 61, 54, 23, 2, 28, 45, 42, 49, 26, -11, 14, 69, 76, 59, 52, 45, 42, 35, 38, 59, 61, 45, 45, 28, 0, 133, 564, 1023, 906, 199, -178, 21, 78, -57, -26, 16, -11, 7, 35, 30, 38, 59, 61, 61, 78, 97, 104, 92, 92, 123, 145, 142, 152, 183, 202, 207]"
1713890702693984618,"[209, 216, 214, 197, 173, 142, 104, 66, 28, 4, -14, -38, -57, -61, -59, -54, -42, -49, -71, -95, -85, -54, -54, -57, -33, -23, -30, -33, -21, -7, -7, -2, 9, 11, 19, 23, 7, -7, -2, 11, 33, 47, 33, 23, 28, 45, 73, 69, 49, 59, 64, 59, 64, 73, 73, 64, 83, 99, 71, 57, 88, 104, 109, 128, 133, 111, 109, 109, 83, 76, 90, 85, 83]"
1713890703255052961,"[88, 52, 14, 199, 718, 1199, 1004, 223, -142, 47, 33, -135, -76, 2, -38, -40, 11, 14, 4, 26, 38, 40, 57, 73, 85, 85, 78, 76, 95, 121, 126, 119, 128, 142, 142, 135, 128, 109, 102, 97, 49, 0, -11, -33, -49, -35, -26, -30, -23, -16, -7, 28, 42, 19, 16, 28, 35, 45, 45, 40, 40, 40, 49, 54, 47, 38, 47, 61, 57, 59, 69, 69, 61]"
1713890703816121304,"[64, 76, 78, 64, 23, -4, 14, 30, 23, 30, 49, 49, 40, 42, 57, 57, 42, 42, 45, 42, 66, 102, 97, 73, 66, 69, 64, 59, 59, 61, 69, 73, 47, -2, 97, 566, 1171, 1180, 426, -121, 4, 83, -57, -30, 35, -11, -14, 52, 61, 28, 30, 28, 14, 30, 59, 66, 59, 57, 64, 76, 97, 123, 145, 169, 176, 166, 171, 180, 147, 73, 45, 42, -4]"
1713890704377189647,"[-49, -61, -66, -71, -76, -66, -54, -64, -73, -66, -59, -57, -38, -23, -28, -23, -7, 0, -2, 9, 23, 19, 21, 45, 42, 21, 42, 71, 59, 54, 61, 59, 69, 83, 80, 78, 80, 85, 90, 90, 85, 80, 69, 59, 90, 128, 123, 99, 92, 83, 83, 104, 104, 83, 97, 114, 69, 0, 107, 611, 1271, 1321, 492, -169, -35, 80, -76, -71, -7, -42, -42, -4, -7]"
1713890704938257994,"[-11, -16, -28, -19, -19, -47, -54, -19, 7, 11, 26, 45, 61, 90, 116, 133, 140, 128, 121, 133, 128, 85, 42, 9, -11, -9, 0, -21, -35, -9, 16, 30, 16, -21, -11, 11, 9, 21, 35, 33, 35, 40, 47, 66, 69, 69, 76, 64, 57, 71, 88, 80, 69, 78, 76, 49, 42, 47, 52, 71, 88, 95, 92, 73, 66, 78, 78, 73, 76, 69, 59, 59, 71]"
1713890705499326337,"[97, 126, 128, 107, 92, 83, 85, 92, 69, 49, 66, 85, 69, 9, -9, 249, 873, 1330, 914, 49, -159, 73, 14, -92, -30, -28, -69, -54, -35, -45, -45, -33, -26, -19, -2, 11, 21, 30, 30, 33, 61, 97, 121, 138, 145, 145, 145, 138, 92, 52, 52, 57, 38, 7, -2, -7, -35, -45, -23, -21, -38, -38, -11, 9, -4, -9, 30, 45, 14, 14, 38, 42, 57]"
1713890706060394680,"[71, 57, 52, 57, 45, 69, 102, 85, 64, 59, 59, 83, 90, 45, 21, 85, 149, 83, -30, -9, 73, 59, 59, 130, 114, 35, 30, 95, 123, 90, 66, 90, 116, 66, 26, 154, 209, 19, -40, 73, 38, -7, 76, 45, -59, -40, -26, -88, 49, 583, 1190, 1078, 173, -318, -73, -66, -323, -280, -147, -185, -190, -99, -45, -33, -23, 49, 133, 85, 21, 26, -16, 7, 109]"
1713890706621432505,"[78, 23, 90, 107, 35, 80, 159, 85, 7, 42, 102, 109, -4, -92, -4, 85, 73, -21, -133, -109, -66, -78, -45, 9, 19, -19, -33, 23, 35, -26, -47, -21, -7, -23, -35, -9, -11, -66, -52, 14, 2, -35, -19, 4, -30, -59, -23, -11, -40, -9, -4, -54, -16, 45, 21, -30, -40, 0, 11, -21, -19, 23, 38, 28, 42, 66, 54, 21, 9, 14, 7, 0, 7]"
1713890707182500848,"[9, 7, -14, -49, 54, 430, 852, 816, 221, -199, -45, 57, -85, -78, 2, -40, -71, -21, 11, -2, -21, -7, 4, -14, -11, 2, -14, -16, 14, 21, 4, 9, 45, 71, 80, 83, 88, 107, 119, 109, 90, 52, 9, -4, -9, -26, -26, -9, -4, 0, 14, 16, 16, 11, 9, 28, 49, 57, 42, 30, 59, 71, 26, 7, 35, 45, 30, 28, 64, 95, 59, 26, 66]"
1713890707743569191,"[92, 66, 78, 90, 59, 64, 95, 90, 85, 69, 40, 38, 64, 95, 107, 109, 109, 83, 49, 35, 28, 21, 16, 35, 47, 35, 42, 26, 7, 176, 566, 873, 680, 99, -130, 69, 102, -11, 11, 52, 38, 47, 73, 76, 71, 92, 102, 97, 109, 119, 109, 121, 123, 107, 128, 176, 192, 140, 107, 157, 204, 183, 161, 169, 123, 14, -23, 19, 38, 9, -23, -14, 4]"
1713890708304637538,"[-11, -11, 23, 28, 33, 47, 14, 2, 42, 33, -21, -30, -26, -38, -19, 14, 0, 0, 30, 28, 11, 23, 47, 64, 52, 23, 47, 76, 54, 69, 102, 90, 85, 85, 54, 66, 133, 157, 114, 107, 140, 111, 78, 92, 78, 57, 85, 107, 92, 64, 59, 221, 614, 949, 766, 161, -116, 66, 95, -16, 40, 99, 52, 38, 80, 83, 71, 99, 119, 109, 114, 123, 135]"
1713890708865705881,"[157, 169, 159, 142, 135, 149, 171, 169, 157, 154, 147, 135, 130, 114, 69, 26, 2, -28, -57, -61, -61, -49, -49, -59, -38, -23, -33, -26, -14, -7, -4, -9, -2, 21, 28, 7, -19, -11, 16, 19, 2, 21, 47, 54, 64, 59, 42, 54, 61, 47, 61, 88, 90, 78, 71, 76, 78, 99, 138, 145, 126, 109, 95, 97, 109, 107, 99, 85, 71, 59, 19, 23, 238]"
1713890709426774224,"[661, 937, 645, 26, -140, 92, 88, -33, 28, 73, 42, 54, 54, 26, 35, 57, 64, 80, 95, 104, 107, 99, 114, 138, 138, 154, 173, 178, 195, 211, 199, 183, 169, 157, 133, 95, 54, 16, -14, -33, -49, -66, -69, -57, -42, -38, -40, -28, -14, -11, -4, 4, 0, 4, 19, 11, 7, 21, 19, 9, 19, 16, -4, -16, -7, -2, 0, 14, 19, 23, 38, 38, 30]"
1713890709987842567,"[30, 42, 52, 66, 85, 90, 80, 66, 57, 49, 33, 30, 42, 54, 64, 57, 16, 9, 228, 730, 1066, 692, -21, -154, 107, 61, -52, 26, 59, 23, 40, 66, 71, 76, 88, 92, 102, 114, 123, 138, 147, 157, 173, 188, 207, 223, 228, 240, 249, 230, 216, 214, 195, 157, 119, 64, 11, -7, 7, 9, -11, -14, 2, -4, -14, 0, 14, 2, -7, 2, 2, -14, -11]"
1713890710548910910,"[4, 0, -7, 9, 19, 16, 16, 14, 11, 16, 14, 16, 21, 0, -9, 21, 28, 11, 23, 38, 28, 38, 57, 66, 78, 92, 97, 85, 69, 64, 57, 64, 78, 83, 88, 85, 45, 45, 307, 833, 1116, 668, -47, -142, 109, 59, -38, 14, 7, -23, 14, 42, 35, 33, 38, 59, 80, 83, 85, 99, 114, 126, 145, 166, 183, 197, 209, 214, 226, 240, 230, 207, 178]"
1713890711109979253,"[133, 99, 71, 35, 0, -28, -23, -9, -7, -2, -2, 9, 19, 21, 35, 45, 40, 40, 49, 52, 61, 69, 47, 33, 42, 54, 54, 49, 30, 21, 23, 9, -11, -14, -14, -4, 9, 9, 11, 16, 0, -28, -26, -4, -2, -9, -9, 7, 28, 45, 59, 71, 49, 21, 35, 49, 45, 40, 40, 52, 66, 45, 16, 97, 457, 961, 1016, 354, -192, -42, 102, -38, -23]"
1713890711671047600,"[59, 28, 16, 47, 52, 54, 69, 57, 35, 52, 80, 88, 90, 111, 128, 135, 154, 180, 192, 202, 214, 216, 195, 176, 180, 161, 99, 52, 38, 26, 4, -4, -14, -33, -47, -30, -11, -14, -9, 7, 16, 14, 14, 23, 30, 26, 35, 45, 42, 42, 45, 40, 38, 40, 33, 30, 28, 14, 14, 19, -2, -14, 7, 11, 7, 16, 16, 16, 21, 14, 19, 33, 33]"
1713890712232115943,"[33, 40, 40, 40, 47, 52, 49, 49, 57, 69, 47, 11, 28, 49, 26, 30, 71, 78, 54, 35, 33, 47, 52, 49, 57, 52, 16, -9, -11, 140, 587, 1042, 892, 154, -216, 28, 95, -54, -14, 49, 11, 7, 40, 54, 52, 49, 49, 61, 80, 92, 95, 99, 116, 138, 154, 166, 178, 199, 209, 216, 228, 218, 204, 202, 176, 138, 107, 73, 38, 16, 16, 23, 26]"
1713890712793153768,"[28, 26, 23, 40, 57, 42, 30, 69, 61, 4, 30, 83, 57, 9, -4, -4, -9, -33, -54, -64, -61, -40, -40, -45, -30, -40, -45, -33, -23, -9, 7, -7, -19, -4, 7, 14, 2, -28, -21, 9, 7, 4, 16, 19, 21, 23, 26, 49, 64, 38, 28, 52, 64, 61, 59, 61, 85, 107, 92, 88, 119, 128, 97, 80, 97, 104, 90, 85, 88, 83, 76, 61, 38]"
1713890713354222111,"[154, 554, 985, 914, 280, -133, 26, 128, 0, 2, 66, 42, 14, 23, 42, 54, 40, 21, 47, 88, 90, 83, 97, 102, 90, 95, 109, 119, 116, 123, 147, 147, 135, 128, 104, 64, 38, 11, -19, -28, -28, -42, -52, -38, -28, -28, -23, -11, -2, 9, 26, 35, 33, 38, 47, 54, 42, 30, 42, 57, 47, 42, 54, 45, 54, 88, 71, 52, 76, 80, 73, 88, 88]"
1713890713915290454,"[64, 59, 88, 99, 64, 61, 104, 90, 28, 11, 30, 35, 47, 59, 42, 35, 64, 66, 42, 59, 102, 102, 64, 40, 45, 71, 76, 66, 83, 78, 61, 54, 7, 147, 690, 1221, 1025, 211, -159, 71, 92, -59, -11, 33, -11, 2, 45, 19, 7, 59, 49, 0, 16, 38, 14, 7, 38, 73, 78, 85, 109, 109, 140, 185, 173, 169, 185, 147, 109, 109, 85, 52, 49]"
1713890714476358797,"[66, 78, 92, 116, 147, 142, 88, 88, 154, 145, 95, 133, 149, 107, 133, 145, 95, 109, 130, 107, 138, 188, 176, 166, 171, 149, 140, 176, 221, 249, 266, 285, 323, 380, 421, 464, 537, 595, 637, 730, 816, 849, 914, 992, 1033, 1125, 1233, 1244, 1266, 1337, 1337, 1342, 1440, 1504, 1447, 1290, 1161, 1104, 1009, 902, 856, 814, 745, 676, 564, 521, 918, 1671, 1878, 1002, 83, 185, 437]"
1713890715037427144,"[199, 140, 271, 195, 111, 147, 142, 121, 123, 114, 126, 166, 183, 185, 180, 195, 242, 271, 280, 299, 266, 238, 297, 359, 338, 266, 249, 245, 188, 95, -83, -188, -76, -23, -107, -119, -85, -71, 4, 4, -111, -64, 52, 2, -40, 19, 49, 42, 69, 109, 140, 161, 126, 85, 138, 138, 59, 92, 149, 123, 142, 188, 161, 119, 123, 149, 173, 183, 199, 211, 164, 152, 199]"
1713890715598464969,"[169, 126, 152, 192, 211, 218, 247, 268, 235, 214, 238, 257, 216, 145, 147, 178, 157, 111, 114, 435, 1149, 1585, 985, -11, -123, 188, 66, -54, 64, 99, 30, 21, 80, 99, 88, 97, 116, 119, 126, 147, 161, 161, 173, 192, 204, 228, 249, 264, 276, 264, 233, 218, 214, 188, 152, 107, 61, 38, 38, 35, 35, 40, 57, 69, 64, 64, 83, 90, 95, 109, 104, 90, 99]"
1713890716159533312,"[111, 111, 116, 119, 116, 121, 126, 123, 109, 90, 80, 88, 92, 92, 97, 85, 76, 83, 92, 88, 85, 90, 95, 92, 88, 85, 73, 66, 90, 121, 133, 128, 107, 85, 83, 88, 80, 69, 61, 61, 69, 47, -40, -21, 414, 1094, 1206, 402, -280, -128, 33, -154, -188, -107, -135, -152, -104, -102, -114, -90, -76, -71, -57, -45, -33, -14, 0, 4, 16, 45, 73, 88, 88]"
1713890716720601655,"[97, 111, 109, 107, 95, 64, 19, -26, -49, -57, -64, -78, -99, -99, -80, -64, -54, -45, -52, -49, -26, -14, -14, -9, -11, -7, 9, 23, 19, 2, -2, 19, 30, 26, 9, -16, -21, -2, 0, -9, -11, -21, -26, -4, 14, 19, 23, 26, 26, 28, 28, 28, 40, 57, 57, 57, 54, 38, 28, 23, 23, 30, 42, 40, 28, 11, -30, 7, 357, 909, 1028, 402, -169]"
1713890717281664915,"[-66, 83, -57, -92, -30, -49, -57, -14, -9, -35, -54, -45, -26, -19, -9, -4, -28, -49, -2, 95, 138, 107, 107, 114, 121, 157, 130, 90, 76, 11, -40, -45, -80, -95, -73, -109, -140, -104, -83, -83, -73, -57, -28, -38, -66, -42, -30, -26, 2, -2, -21, -14, 7, 38, 28, 11, 35, 45, 26, 26, 33, 45, 42, 4, -4, 26, 40, 47, 61, 61, 49, 35, 42]"
1713890717842707823,"[49, 26, 45, 104, 114, 78, 54, 45, 30, 23, 42, 45, 23, 30, 40, -7, -19, 197, 678, 1035, 692, -73, -261, 4, -21, -138, -49, -23, -85, -54, -14, -21, -4, 11, 11, 26, 30, 40, 71, 88, 80, 78, 102, 123, 138, 161, 173, 142, 130, 147, 128, 88, 33, -23, -49, -71, -99, -123, -138, -142, -145, -104, -40, -38, -42, -30, -59, -49, 11, 14, -16, -38, -59]"
1713890718403776170,"[-33, 0, -26, -66, -71, -64, -57, -33, -23, -30, -11, -11, -66, -95, -61, -47, -59, -57, -40, -16, 0, -26, -42, 7, 54, 54, 40, 21, -2, 7, 35, 38, 45, 35, 21, 42, 19, -23, 154, 597, 954, 785, 169, -149, 11, 33, -102, -59, 35, 16, -26, -2, 23, 23, 47, 45, 35, 61, 78, 78, 90, 107, 116, 123, 135, 154, 188, 216, 209, 178, 178, 190, 176]"
1713890718964844513,"[135, 66, 9, 14, -9, -83, -85, -47, -80, -114, -61, -21, -47, -97, -111, -78, -66, -83, -83, -71, -66, -61, -49, -35, -40, -49, -42, -40, -42, -28, -14, -7, 2, -2, -11, -11, -16, -26, -4, 9, -11, -7, 47, 73, 54, 38, 30, 35, 45, 33, 14, 19, 52, 66, 28, -19, 57, 435, 983, 1087, 428, -159, -30, 126, -26, -33, 45, -11, -28, 21, -4, -35, -7]"
1713890719525912856,"[19, 16, 21, 47, 47, 42, 76, 109, 99, 95, 121, 128, 128, 149, 147, 123, 140, 154, 99, 45, 28, 4, 7, 14, -23, -42, -23, -26, -21, -2, -2, -7, 14, 23, 14, 19, 30, 28, 30, 26, 16, 26, 33, 28, 30, 28, 9, 7, 7, -7, -14, -7, 4, 11, 9, -2, -4, 2, 11, 33, 42, 28, 11, -4, -23, -16, -4, -19, -21, -4, 7, -28, -69]"
1713890720086981199,"[140, 737, 1233, 885, 28, -188, 66, -40, -192, -73, -21, -71, -49, -26, -28, -4, 9, -14, -23, -2, 19, 33, 54, 64, 71, 88, 114, 135, 145, 147, 152, 154, 147, 130, 114, 90, 49, 26, 21, 14, 4, 11, 14, 0, -2, 19, 33, 30, 33, 33, 16, 14, 42, 45, 26, 19, 9, 2, 19, 16, -7, 2, 23, 26, 33, 33, 14, 11, 33, 35, 28, 26, 4]"
1713890720648019024,"[-14, -2, 21, 38, 30, 2, -9, -7, -19, -28, -35, -52, -47, -26, -52, -99, 52, 606, 1168, 945, 85, -247, 4, -7, -152, -64, -11, -57, -38, -9, -9, 4, 19, 21, 26, 38, 47, 61, 76, 85, 88, 90, 109, 135, 147, 149, 142, 140, 119, 83, 66, 52, 16, -14, -21, -19, -21, -23, -21, -14, -9, -2, 14, 26, 11, -2, 21, 45, 45, 42, 35, 19, 11]"
1713890721209087367,"[23, 38, 38, 30, 26, 38, 40, 16, 14, 26, 26, 30, 35, 33, 30, 35, 19, 11, 52, 76, 42, 26, 33, 7, -4, 16, 11, -16, -19, -9, -16, -71, -73, 247, 866, 1149, 576, -173, -180, 49, -71, -161, -99, -102, -107, -69, -61, -59, -33, -28, -21, -2, 7, 19, 30, 42, 64, 76, 76, 97, 121, 126, 121, 109, 99, 102, 85, 59, 54, 30, -4, -7, -11]"
1713890721770155714,"[-26, -9, 4, 4, 4, -7, -16, 2, 11, 7, 16, 21, 19, 30, 40, 33, 28, 38, 47, 49, 52, 49, 40, 42, 49, 52, 54, 54, 54, 47, 40, 59, 88, 80, 45, 21, 23, 33, 35, 33, 30, 19, 7, 19, 9, -49, 33, 521, 1161, 1114, 238, -295, -66, 7, -178, -142, -66, -109, -107, -61, -52, -49, -40, -35, -26, -2, 14, 19, 30, 45, 54, 80, 111]"
1713890722331224057,"[119, 116, 128, 138, 135, 130, 121, 92, 49, 9, 0, 2, -7, -40, -69, -66, -42, -19, -2, 0, 0, 14, 33, 40, 47, 47, 23, -2, 7, 23, 23, 19, 14, 14, 26, 33, 35, 40, 38, 33, 38, 40, 47, 71, 85, 73, 49, 33, 35, 33, 26, 35, 47, 54, 59, 42, -11, 33, 418, 1011, 1116, 409, -188, -42, 102, -57, -61, 9, -28, -30, 2, -11, -30]"
1713890722892292400,"[-28, -21, -9, 2, -2, -7, 4, 16, 33, 54, 71, 83, 88, 95, 107, 111, 102, 71, 28, -9, -47, -69, -76, -88, -92, -85, -71, -57, -49, -40, -28, -16, -9, -2, 7, 11, 2, -4, 7, 16, 11, 16, 26, 26, 30, 45, 45, 40, 47, 47, 40, 49, 73, 97, 111, 90, 64, 69, 78, 73, 71, 73, 78, 83, 73, 28, 35, 333, 899, 1135, 571, -99, -71]"
1713890723453360743,"[116, -7, -52, 28, 16, 0, 33, 40, 23, 19, 33, 42, 19, -4, 7, 30, 45, 57, 59, 61, 66, 73, 76, 76, 76, 76, 69, 38, 2, -23, -42, -57, -66, -69, -59, -52, -45, -35, -30, -23, -9, 0, 0, 9, 16, 21, 33, 42, 38, 35, 40, 40, 52, 66, 59, 49, 54, 59, 61, 49, 45, 69, 95, 90, 66, 54, 57, 57, 59, 71, 76, 69, 57]"
1713890724014398568,"[21, 9, 228, 780, 1192, 790, -19, -180, 78, 21, -90, -30, -30, -64, -23, 4, 2, 9, 14, 14, 30, 57, 57, 52, 71, 95, 111, 128, 145, 138, 133, 140, 145, 142, 135, 111, 71, 33, 4, -26, -49, -57, -54, -49, -38, -28, -33, -38, -21, 2, 4, -16, -33, -33, -21, -4, 9, 21, 9, -14, 4, 35, 26, 11, 21, 26, 23, 35, 66, 90, 80, 38, -2]"
1713890724575466911,"[9, 26, 9, 4, 21, 26, 21, 11, -21, 49, 476, 1066, 1064, 302, -199, -30, 42, -97, -73, -11, -35, -38, -11, 4, 21, 30, 35, 42, 52, 73, 97, 121, 135, 116, 97, 121, 164, 173, 159, 161, 171, 149, 114, 92, 76, 40, 9, -2, -9, -11, -7, 0, -2, -4, -2, -2, -14, -23, -19, -4, -2, -4, -4, -19, -42, -38, -19, -19, -19, -7, -4, -7, 9]"
1713890725136535258,"[19, -4, -16, 9, 28, 35, 38, 35, 14, -4, 7, 30, 23, 16, 26, 30, 38, 21, -26, 140, 728, 1256, 930, 71, -178, 71, 35, -85, -14, 23, -9, 2, 23, 2, -7, 11, 33, 52, 54, 54, 76, 83, 88, 123, 135, 114, 123, 147, 161, 180, 166, 149, 147, 109, 57, 21, 23, 19, -45, -59, -14, -7, -7, 16, -9, -42, -19, -14, -21, 7, 2, -28, -23]"
1713890725697603601,"[-16, -35, -49, -28, -7, -2, 4, -16, -47, -30, -9, -35, -33, 11, 2, -35, 4, 38, -7, 11, 73, 66, 54, 54, 26, 21, 21, 9, 38, 59, 42, 42, 9, -49, 121, 649, 1140, 945, 161, -209, 26, 73, -83, -26, 64, 11, -9, 42, 49, 4, -14, 9, 42, 59, 54, 52, 64, 66, 88, 130, 130, 116, 157, 197, 173, 145, 149, 123, 88, 90, 90, 64, 33]"
1713890726258671944,"[19, 16, 19, 30, 52, 59, 30, 14, 42, 54, 33, 38, 33, 0, -7, -16, -30, -21, -7, -16, -35, -26, 7, 16, -4, -14, 9, 26, 28, 33, 33, 38, 47, 38, 30, 45, 57, 59, 54, 54, 71, 76, 28, -2, 26, 47, 35, 42, 71, 71, 42, 33, 54, 64, 66, 38, 11, 69, 104, 38, 19, 233, 690, 1047, 778, 90, -123, 102, 88, -40, 14, 57, 28]"
1713890726819740287,"[35, 66, 88, 83, 57, 61, 85, 80, 73, 85, 88, 90, 109, 130, 154, 173, 176, 166, 157, 140, 128, 123, 102, 71, 42, 11, -9, -16, -23, -54, -80, -59, -30, -47, -69, -61, -52, -54, -61, -59, -52, -42, -30, -19, -19, -23, -19, -11, -4, 9, 14, 14, 26, 38, 30, 26, 35, 40, 38, 47, 52, 54, 57, 52, 57, 73, 73, 71, 80, 71, 49, 52, 61]"
1713890727380778112,"[52, 45, 66, 102, 126, 114, 78, 45, 42, 59, 54, 52, 66, 71, 52, 19, 69, 409, 937, 1054, 452, -109, -7, 142, 0, -35, 14, -21, -33, 0, -9, -23, 0, 14, 9, 23, 40, 28, 33, 59, 61, 54, 76, 104, 111, 116, 128, 123, 104, 102, 102, 78, 42, 11, -2, -4, -7, -4, -4, -7, -4, -2, -4, 7, 23, 30, 14, 0, 26, 45, 38, 38, 49]"
1713890727941846455,"[54, 57, 66, 61, 33, 19, 38, 47, 52, 57, 52, 54, 64, 69, 73, 76, 64, 59, 66, 38, 9, 16, 26, 26, 38, 49, 52, 45, 38, 54, 92, 119, 111, 83, 66, 71, 78, 85, 88, 73, 59, 45, -14, 45, 507, 1135, 1137, 345, -190, -7, 69, -116, -109, -38, -69, -73, -40, -38, -35, -14, 0, 7, 19, 19, 26, 54, 69, 76, 92, 99, 111, 142, 159]"
1713890728502914802,"[154, 152, 149, 138, 121, 99, 66, 21, -14, -16, -11, -33, -66, -71, -54, -47, -40, -21, -9, -4, -2, 4, 19, 33, 33, 33, 38, 40, 45, 57, 69, 64, 61, 69, 76, 80, 80, 80, 78, 80, 88, 97, 97, 88, 76, 76, 85, 90, 80, 69, 69, 76, 73, 73, 69, 57, 52, 45, 35, 30, 26, 19, 23, 49, 78, 80, 57, 35, 33, 45, 54, 47, 45]"
1713890729063983145,"[57, 54, 0, -49, 164, 771, 1273, 925, 33, -226, 21, -52, -178, -76, -42, -85, -64, -35, -28, -14, -9, -4, 21, 40, 47, 52, 52, 66, 90, 107, 126, 145, 152, 154, 154, 147, 147, 140, 121, 92, 64, 52, 45, 30, 21, 21, 26, 38, 52, 49, 42, 52, 66, 69, 64, 61, 54, 47, 52, 54, 47, 45, 45, 38, 23, 14, 2, -7, -7, 2, -16, -54, -45]"
1713890729625051488,"[-16, -28, -30, -7, 2, 4, 14, -2, -21, -7, 7, 9, 16, 16, 21, 40, 42, 38, 47, 42, 40, 54, 64, 66, 71, 57, 35, 57, 99, 116, 107, 85, 76, 88, 92, 90, 99, 102, 92, 80, 40, 64, 416, 1033, 1271, 652, -73, -40, 149, -9, -54, 49, 35, 2, 30, 33, 30, 45, 42, 42, 54, 61, 71, 64, 40, 40, 52, 64, 88, 99, 107, 123, 119]"
1713890730186089313,"[97, 83, 73, 59, 30, -9, -33, -30, -28, -33, -47, -61, -61, -49, -38, -30, -28, -35, -35, -21, -4, 2, 7, 7, 7, 14, 28, 35, 26, 21, 35, 47, 42, 52, 61, 52, 52, 61, 66, 71, 71, 73, 78, 88, 92, 83, 78, 88, 78, 59, 59, 69, 76, 76, 73, 80, 83, 49, 26, 49, 59, 45, 54, 76, 90, 99, 104, 99, 85, 80, 85, 83, 73]"
1713890730747157656,"[83, 90, 69, 30, 40, 285, 833, 1161, 683, -59, -119, 109, 16, -80, -38, -40, -54, -38, -40, -42, -21, -7, -9, -4, 14, 28, 28, 42, 66, 73, 76, 92, 111, 123, 130, 135, 140, 130, 107, 95, 64, 26, 9, 2, -9, -11, -11, -11, 0, 7, -7, -21, -9, 2, 11, 19, 19, 21, 23, 28, 42, 47, 52, 61, 59, 54, 61, 57, 47, 71, 83, 59, 35]"
1713890731308225999,"[40, 64, 69, 57, 57, 40, 26, 45, 59, 49, 52, 59, 54, 59, 71, 71, 66, 76, 78, 69, 80, 88, 73, 85, 121, 133, 119, 102, 88, 85, 78, 57, 66, 97, 71, 9, -11, 111, 507, 959, 864, 192, -195, -42, -11, -147, -107, -49, -76, -61, -23, -26, -40, -30, -11, -2, 26, 52, 40, 38, 69, 88, 88, 88, 80, 97, 128, 135, 140, 138, 119, 109, 99]"
1713890731869294346,"[66, 45, 30, 0, -14, -2, 9, 9, -23, -49, -14, 19, 9, 14, 26, 23, 26, 33, 33, 35, 40, 28, 11, 21, 49, 54, 33, 19, 30, 49, 49, 45, 57, 64, 61, 49, 23, 19, 33, 35, 30, 42, 57, 66, 52, 45, 59, 69, 64, 61, 71, 95, 119, 116, 85, 49, 40, 49, 59, 73, 71, 54, 45, 19, 49, 326, 780, 911, 418, -114, -78, 88, -21]"
1713890732430332171,"[-95, -35, -26, -42, -14, 11, 0, -2, 19, 42, 59, 45, 7, 0, 28, 57, 71, 85, 97, 114, 140, 147, 147, 149, 128, 123, 123, 78, 11, -21, -26, -28, -35, -28, -16, -21, -28, -14, 2, 14, 21, 26, 28, 33, 38, 38, 30, 19, 35, 52, 33, 40, 66, 45, 40, 61, 61, 66, 78, 64, 57, 73, 88, 85, 73, 78, 102, 104, 88, 80, 71, 85, 128]"
1713890732991400514,"[147, 130, 109, 95, 85, 80, 73, 66, 71, 54, 21, 9, 33, 226, 656, 925, 552, -52, -133, 59, 2, -90, -33, -9, -47, -52, -47, -49, -23, 0, -7, -16, 7, 35, 47, 54, 52, 49, 69, 99, 126, 142, 145, 135, 133, 133, 130, 123, 83, 40, 23, 0, -21, -7, 9, -2, -9, 16, 33, 28, 35, 38, 40, 52, 57, 57, 59, 59, 49, 42, 47, 54, 57]"
1713890733552468857,"[49, 47, 61, 69, 64, 52, 33, 30, 49, 49, 42, 47, 38, 21, 35, 71, 78, 49, 26, 30, 45, 52, 54, 57, 52, 52, 38, 16, 149, 528, 835, 611, 47, -123, 73, 69, -40, 11, 54, 28, 38, 54, 42, 54, 76, 83, 92, 95, 97, 114, 126, 126, 138, 152, 161, 176, 190, 190, 173, 154, 126, 109, 92, 57, 16, -14, -33, -38, -38, -38, -42, -45, -33]"
1713890734113506682,"[-16, -7, 0, 2, -7, -23, -28, -4, 4, -11, -35, -30, 4, -9, -38, -2, 42, 42, 35, 21, -4, -7, 0, 2, 21, 23, 16, 42, 83, 83, 52, 47, 54, 54, 54, 59, 66, 76, 66, 33, 57, 297, 742, 949, 559, 26, -45, 69, 14, -4, 30, 30, 64, 47, 21, 45, 30, 42, 66, 54, 85, 123, 119, 126, 152, 164, 173, 209, 264, 254, 173, 138, 154]"
1713890734674575025,"[157, 130, 73, 40, 45, 33, -19, -54, -40, -40, -61, -49, -47, -71, -57, -38, -59, -61, -28, -16, 21, 49, -49, -128, -69, -30, -49, -38, -14, -16, -21, -16, -2, 2, 11, 42, 61, 54, 38, 9, -2, 7, 9, 11, 23, 30, 26, 4, 4, 176, 568, 859, 618, 49, -133, 57, 64, -30, 4, 28, 11, 42, 66, 42, 21, 30, 47, 61, 78, 95, 99, 104, 121]"
1713890735235643372,"[140, 149, 164, 169, 157, 166, 185, 185, 171, 145, 109, 76, 57, 40, 19, 2, 0, 4, 16, 30, 38, 30, 33, 49, 59, 66, 73, 66, 64, 80, 88, 90, 83, 66, 69, 80, 83, 90, 88, 71, 64, 78, 90, 83, 80, 102, 130, 133, 121, 109, 80, 61, 71, 66, 59, 69, 66, 16, -54, -49, 199, 761, 1178, 773, -57, -238, 7, -54, -164, -90, -64, -88, -57]"
1713890735796691371,"[-47, -61, -42, -16, -9, 7, 28, 28, 28, 47, 71, 95, 102, 92, 107, 145, 159, 152, 147, 138, 114, 78, 47, 14, -21, -40, -40, -38, -30, -16, -11, -9, 9, 26, 19, 19, 49, 59, 23, 33, 83, 64, 21, 42, 85, 104, 83, 52, 61, 59, 33, 38, 54, 49, 49, 40, 19, 42, 78, 76, 61, 47, 33, 42, 66, 61, 40, 47, 69, 61, -2, -35, 183]"
1713890736357749540,"[718, 1128, 828, 88, -152, 66, 40, -85, -16, 21, -42, -47, 0, 16, 2, -7, -16, -66, -69, -4, 9, 0, 26, 54, 69, 85, 111, 123, 128, 140, 135, 111, 92, 69, 28, 0, -14, -28, -33, -30, -40, -69, -76, -49, -35, -42, -49, -42, -23, -11, -11, -9, 2, 19, 26, 26, 21, 28, 42, 52, 47, 45, 49, 57, 64, 71, 69, 69, 71, 78, 85, 90, 88]"
1713890736918817883,"[85, 85, 88, 97, 109, 97, 61, 42, 45, 59, 71, 66, 54, 54, 64, 76, 80, 76, 76, 78, 78, 90, 97, 90, 90, 99, 107, 104, 107, 107, 102, 102, 109, 99, 66, 54, 57, 49, 38, 33, 42, 49, 42, 35, 47, 52, 45, 33, 19, 19, 35, 42, 35, 30, 30, 38, 45, 54, 59, 52, 42, 42, 54, 73, 99, 104, 90, 85, 92, 76, 49, 45, 49]"
1713890737479886226,"[59, 69, 57, 14, 16, 276, 856, 1261, 871, 64, -152, 54, 4, -92, -26, -7, -45, -19, 16, 16, 23, 42, 45, 40, 59, 80, 69, 49, 57, 71, 80, 107, 138, 154, 157, 161, 176, 183, 178, 157, 116, 80, 57, 45, 33, 14, 4, 7, 11, 14, 21, 26, 23, 33, 47, 47, 45, 57, 54, 33, 21, 23, 16, 9, 11, 9, -4, -2, 7, 0, -9, -9, 2]"
1713890738040924051,"[11, 11, 7, 9, 11, 11, 9, 2, -9, -7, 2, 4, 9, 14, 21, 23, 26, 14, -9, -23, -21, -23, -21, -4, 7, 2, -4, 11, 28, 33, 35, 38, 42, 61, 95, 104, 90, 83, 83, 66, 54, 76, 88, 73, 71, 61, 9, 104, 583, 1216, 1285, 502, -161, -35, 104, -64, -69, 21, -2, -14, 19, 23, 23, 40, 57, 66, 78, 85, 80, 92, 114, 128, 149]"
1713890738601992398,"[173, 183, 180, 214, 252, 226, 192, 199, 169, 80, 26, 7, -42, -76, -45, -38, -95, -133, -104, -85, -92, -66, -42, -57, -64, -35, -7, 2, 7, 7, 19, 19, 0, 2, 16, 30, 54, 73, 35, -19, 21, 83, 54, 28, 73, 71, 7, 0, 42, 80, 109, 66, 0, 16, 45, 40, 59, 73, 64, 54, 54, 57, 52, 47, 49, 45, 45, 52, 66, 90, 80, 21, 35]"
1713890739163060741,"[83, 52, 11, 30, 42, 7, -4, 11, -14, -38, -4, 21, 16, 19, 23, 14, 38, 80, 66, 21, 16, 42, 14, -21, 4, 23, 30, 52, 11, -40, 71, 404, 828, 906, 345, -197, -104, 42, -78, -88, -11, -26, -33, -9, -7, 2, 26, 33, 45, 59, 57, 73, 90, 97, 119, 133, 147, 183, 211, 216, 216, 233, 245, 226, 204, 159, 90, 66, 45, -19, -64, -49, -57]"
1713890739724098566,"[-88, -85, -64, -35, 7, 35, -2, -35, 9, 59, 47, 14, 19, 21, -16, -21, 54, 109, 64, 23, 42, 35, 11, 40, 76, 33, 0, 40, 52, 38, 42, 28, 11, 61, 102, 16, -71, -35, 11, 40, 57, -7, -88, -83, -40, -45, -54, -38, -30, -30, -33, -54, -73, -64, -47, -9, 95, 157, 64, 42, 102, 11, -28, 4, -35, -23, -2, -2, 52, 114, 116, 78, 73]"
1713890740285166909,"[216, 535, 776, 597, 138, -26, 71, 88, 71, 47, 78, 54, -40, 23, 88, 64, 83, 80, 57, 69, 80, 73, 111, 178, 183, 149, 154, 159, 169, 249, 292, 247, 218, 211, 188, 161, 107, 45, 42, 16, -49, -66, -47, -42, -59, -54, -40, -33, -40, -69, -66, -23, -16, -28, -11, -19, -49, -35, -4, -4, -2, 7, 14, 23, 28, 33, 35, 30, 42, 61, 59, 59, 64]"
1713890740846235252,"[57, 59, 71, 78, 80, 71, 49, 42, 40, 38, 54, 78, 88, 92, 102, 92, 64, 64, 80, 71, 66, 85, 88, 64, 30, 85, 380, 825, 990, 557, -14, -49, 133, 69, -4, 52, 73, 49, 54, 76, 78, 64, 69, 104, 126, 121, 116, 111, 104, 107, 119, 135, 142, 147, 180, 209, 221, 235, 218, 166, 119, 78, 33, -4, -42, -76, -85, -76, -59, -47, -52, -69, -69]"
1713890741407273077,"[-49, -35, -33, -33, -23, -2, 2, -2, -7, -21, -30, -7, 23, 16, -2, 9, 26, 28, 40, 54, 45, 35, 38, 45, 47, 52, 57, 59, 76, 99, 97, 83, 76, 52, 40, 57, 69, 64, 57, 54, 42, 0, -30, 71, 426, 887, 942, 354, -157, -33, 119, -19, -42, 42, 33, 16, 42, 40, 38, 66, 76, 52, 45, 64, 80, 95, 109, 128, 164, 199, 204, 188, 209]"
1713890741968341424,"[252, 259, 240, 228, 216, 169, 92, 45, 21, -14, -40, -30, -19, -11, -2, 4, 9, 14, 14, 23, 38, 35, 28, 30, 35, 47, 40, 11, 14, 30, 33, 40, 38, 9, -7, 4, 14, 9, 7, 14, 28, 35, 40, 52, 52, 42, 49, 73, 92, 107, 97, 57, 38, 42, 30, 21, 28, 21, 4, -4, -23, -52, 88, 542, 978, 811, 102, -254, -42, 14, -119, -78, -21]"
1713890742529389423,"[-45, -30, -14, -35, -19, 11, 14, 23, 30, 19, 16, 47, 66, 64, 73, 102, 121, 140, 171, 195, 195, 188, 180, 159, 119, 66, 7, -40, -57, -66, -71, -54, -42, -42, -33, -21, -9, 0, 2, 4, 19, 30, 33, 42, 38, 23, 30, 47, 42, 33, 33, 40, 52, 61, 66, 64, 57, 59, 69, 73, 78, 73, 66, 71, 73, 69, 73, 88, 107, 119, 116, 104, 90]"
1713890743090447592,"[78, 76, 78, 76, 64, 57, 54, 33, 2, 78, 421, 918, 1052, 483, -140, -95, 102, -19, -88, -35, -59, -88, -57, -35, -38, -30, -7, 2, -2, 2, -2, -7, 11, 33, 42, 66, 95, 107, 121, 145, 152, 147, 140, 123, 95, 59, 23, -14, -38, -35, -30, -35, -26, -14, -19, -16, 0, 11, 14, 19, 26, 30, 30, 42, 49, 47, 47, 47, 38, 38, 47, 47, 45]"
1713890743651515935,"[52, 54, 61, 69, 71, 66, 61, 66, 71, 64, 52, 38, 11, 11, 35, 28, 16, 30, 33, 40, 71, 88, 92, 92, 78, 61, 59, 54, 45, 52, 71, 76, 59, 23, 19, 197, 649, 1078, 923, 218, -145, 45, 88, -42, -9, 26, -4, 11, 40, 35, 40, 59, 61, 59, 76, 95, 102, 104, 111, 114, 119, 140, 159, 171, 195, 207, 204, 204, 192, 159, 128, 92, 54]"
1713890744212553760,"[26, 4, -4, -7, -33, -69, -71, -71, -66, -45, -47, -64, -59, -49, -57, -59, -47, -42, -61, -69, -47, -30, -26, -19, -14, 0, 9, -9, -16, -2, 14, 30, 42, 40, 45, 54, 47, 45, 59, 61, 54, 52, 49, 52, 57, 73, 97, 111, 111, 102, 73, 52, 59, 64, 57, 64, 73, 78, 71, 30, 45, 316, 833, 1149, 771, 49, -111, 111, 61, -59, -16, -2, -26]"
1713890744773622103,"[2, 28, 30, 30, 16, 14, 38, 54, 57, 57, 61, 78, 97, 121, 152, 169, 173, 188, 202, 207, 209, 197, 161, 123, 92, 66, 47, 28, 11, 9, 16, 21, 30, 35, 26, 30, 47, 57, 59, 61, 49, 38, 38, 49, 54, 47, 35, 26, 26, 40, 49, 45, 35, 28, 26, 26, 14, 0, 4, 11, 9, 11, 4, -16, -26, -14, -7, 0, 11, 30, 49, 57, 42]"
1713890745334659932,"[16, 2, 4, 9, 11, 23, 28, 4, -38, -59, 64, 476, 961, 945, 290, -178, -28, 76, -66, -59, 16, -4, -7, 28, 35, 35, 52, 64, 71, 88, 88, 80, 88, 99, 109, 126, 145, 166, 183, 197, 202, 199, 202, 195, 164, 121, 88, 64, 35, 16, 14, 11, 11, 26, 16, -7, -2, 14, 19, 26, 26, 19, 14, 11, 2, -2, 4, 14, 23, 42, 54, 38, 11]"
1713890745895728275,"[14, 38, 45, 38, 26, 19, 23, 19, 4, -2, -23, -33, -21, -23, -23, 11, 42, 47, 52, 28, -7, -4, 4, -4, -9, -4, 7, 4, -19, -21, 149, 552, 925, 792, 133, -240, 23, 202, 69, 64, 157, 149, 128, 135, 123, 121, 126, 95, 61, 61, 64, 61, 71, 80, 88, 95, 107, 119, 95, 102, 145, 147, 135, 135, 130, 102, 69, 40, 2, -28, -21, -19, -26]"
1713890746456796618,"[-14, 2, -7, -7, 14, 30, 26, 2, -16, -2, 19, 28, 49, 38, -2, 0, 19, -2, -11, 4, 21, 45, 33, -21, -30, -4, -21, -35, -14, -4, -11, 0, 28, 38, 35, 26, 7, -2, 4, 7, -9, -30, -28, -19, -28, -45, 30, 330, 735, 799, 304, -173, -95, 71, -35, -73, 2, -2, -16, 21, 28, 11, 30, 54, 66, 95, 114, 90, 71, 107, 142, 152, 159]"
1713890747017834443,"[176, 202, 226, 230, 235, 233, 207, 183, 159, 114, 59, 11, -9, -7, -2, 0, 2, 4, 9, 21, 38, 57, 57, 38, 28, 49, 69, 66, 64, 64, 66, 73, 64, 35, 28, 40, 35, 26, 19, 11, 14, 21, 11, 4, 11, 2, -11, -11, -7, 2, 23, 35, 40, 35, 9, -4, 11, 14, 7, 19, 38, 26, -9, -28, 23, 299, 780, 1009, 564, -73, -130, 64, -11]"
1713890747578902786,"[-85, -28, -21, -33, -2, 19, 26, 23, -2, -2, 21, 28, 42, 85, 90, 69, 95, 145, 161, 169, 176, 183, 195, 199, 185, 152, 102, 64, 30, -9, -28, -28, -30, -26, -11, -11, -7, 2, 9, 21, 35, 33, 33, 40, 45, 52, 54, 54, 59, 54, 52, 66, 69, 57, 57, 59, 47, 33, 28, 35, 42, 30, 16, 14, 14, 11, 21, 30, 23, 11, 4, -7, -9]"
1713890748139940611,"[4, 14, 19, 26, 9, -45, -80, 78, 530, 961, 806, 123, -207, 2, 45, -95, -59, -9, -59, -78, -57, -49, -42, -28, -16, 9, 35, 40, 35, 49, 85, 109, 116, 140, 159, 166, 173, 185, 195, 195, 173, 145, 114, 90, 64, 38, 21, 19, 23, 33, 42, 38, 21, 21, 42, 54, 59, 59, 49, 49, 57, 69, 73, 69, 64, 69, 76, 78, 85, 80, 69, 76, 88]"
1713890748701008958,"[85, 85, 85, 71, 64, 71, 80, 80, 73, 61, 47, 14, -11, 0, 7, -14, -28, -19, -7, -11, -35, -78, -71, 178, 695, 1040, 671, -47, -190, 47, 7, -99, -52, -30, -47, -16, 9, 4, 0, 16, 49, 71, 66, 52, 52, 73, 90, 119, 145, 154, 164, 185, 202, 202, 197, 185, 161, 126, 92, 61, 35, 16, 4, 2, 9, 21, 33, 33, 35, 45, 54, 57, 57]"
1713890749262056957,"[52, 47, 38, 19, 0, 7, 28, 30, 33, 40, 30, 9, 2, 16, 35, 42, 38, 30, 30, 26, 21, 38, 71, 92, 99, 78, 52, 54, 66, 61, 59, 71, 76, 59, 4, -71, 26, 511, 1142, 1185, 392, -214, -47, 66, -116, -104, -11, -54, -69, -21, -14, -16, 7, 23, 23, 23, 33, 52, 61, 78, 114, 130, 128, 147, 166, 169, 173, 166, 145, 111, 61, 30, 9]"
1713890749823115126,"[-14, -30, -35, -38, -30, -19, -11, -11, -16, -30, -23, 2, 7, 7, 16, 19, 19, 23, 35, 47, 49, 42, 45, 52, 45, 28, 19, 33, 49, 47, 47, 49, 49, 69, 102, 114, 90, 59, 59, 71, 76, 76, 83, 83, 76, 45, -4, 104, 590, 1178, 1116, 323, -157, 45, 114, -52, -35, 9, -40, -30, 4, -23, -45, -28, -21, -23, -23, -26, -16, 9, 28, 49, 71]"
1713890750384183469,"[83, 99, 123, 149, 161, 142, 111, 83, 52, 16, -9, -33, -54, -57, -52, -49, -54, -57, -52, -38, -19, -9, -7, 4, 7, 11, 26, 33, 38, 47, 40, 38, 49, 59, 59, 61, 59, 59, 71, 83, 83, 64, 49, 78, 114, 130, 123, 85, 52, 49, 61, 71, 73, 59, 30, 11, -11, -47, 130, 695, 1221, 973, 138, -185, 57, 47, -99, -30, 23, -16, -2, 23, 7]"
1713890750945251812,"[14, 45, 57, 49, 42, 49, 64, 59, 45, 38, 45, 64, 83, 88, 95, 104, 95, 69, 57, 35, -9, -49, -61, -69, -73, -69, -61, -61, -54, -42, -33, -23, -14, -11, -14, -7, 7, 19, 21, 14, 4, 9, 21, 26, 26, 30, 21, -2, -2, 14, 7, 7, 28, 38, 30, 30, 33, 47, 78, 97, 95, 78, 59, 61, 71, 69, 66, 73, 76, 71, 28, -33, 145]"
1713890751506320155,"[742, 1290, 1025, 152, -190, 49, 28, -135, -61, 0, -47, -35, -2, -9, 0, 28, 30, 30, 45, 57, 54, 61, 76, 88, 102, 126, 140, 140, 142, 142, 119, 83, 73, 69, 28, -19, -40, -49, -52, -71, -104, -107, -80, -66, -59, -42, -38, -35, -19, 0, 2, 0, 2, 9, 19, 26, 35, 45, 40, 28, 38, 54, 47, 30, 23, 33, 45, 49, 57, 61, 57, 54, 66]"
1713890752067357984,"[73, 76, 78, 59, 21, 26, 69, 92, 97, 95, 80, 71, 76, 80, 80, 76, 76, 83, 83, 54, 4, 128, 626, 1185, 1066, 268, -169, 30, 83, -64, -26, 26, -38, -61, -23, -4, 2, 16, 11, 2, 14, 33, 54, 71, 71, 69, 88, 107, 116, 128, 135, 133, 140, 133, 99, 66, 30, -16, -42, -47, -45, -42, -49, -54, -42, -26, -14, -4, -9, -4, 9, 16, 21]"
1713890752628426327,"[26, 23, 19, 28, 45, 49, 45, 42, 49, 52, 54, 64, 57, 35, 38, 57, 64, 59, 45, 30, 30, 42, 52, 52, 35, 14, 14, 35, 47, 45, 47, 49, 49, 54, 59, 54, 59, 78, 99, 116, 123, 102, 78, 76, 71, 54, 54, 66, 66, 59, 30, -2, 123, 549, 1006, 930, 254, -169, 2, 76, -73, -59, -7, -54, -61, -26, -23, -26, -9, 2, 11, 19, 30]"
1713890753189494670,"[40, 54, 76, 85, 88, 107, 130, 147, 166, 171, 149, 135, 138, 111, 66, 28, -9, -59, -90, -85, -76, -78, -69, -42, -21, -30, -42, -26, -9, -7, 11, 33, 35, 21, 21, 42, 35, 4, 14, 30, 26, 42, 61, 45, 28, 38, 45, 52, 66, 78, 59, 38, 57, 83, 85, 71, 49, 45, 71, 88, 71, 61, 73, 83, 90, 90, 92, 85, 59, 42, 66, 95, 92]"
1713890753750532495,"[66, 42, 35, 28, 21, 14, -7, -28, -30, -40, -92, -52, 268, 714, 821, 347, -180, -157, 7, -88, -119, -26, -23, -47, -23, -9, -21, -11, 7, 0, 11, 38, 52, 71, 88, 97, 109, 121, 166, 207, 202, 207, 233, 242, 226, 192, 147, 102, 57, 11, -11, 0, 9, 11, 4, -7, 0, 19, 26, 14, -4, 4, 28, 30, 35, 47, 42, 35, 49, 57, 47, 47, 49]"
1713890754311600838,"[52, 61, 64, 40, 14, 9, 19, 21, 30, 38, 4, -26, -11, 4, 9, 11, 0, -21, -30, -38, -40, -28, -26, -35, -35, -21, 7, 33, 33, 23, 14, 4, 9, 19, 11, 4, 26, 40, 33, 7, -23, 107, 533, 992, 921, 252, -180, -9, 83, -52, -52, -14, -35, -7, 21, 7, 11, 21, 30, 64, 80, 95, 180, 302, 328, 318, 388, 426, 380, 328, 326, 357, 352]"
1713890754872669181,"[314, 276, 226, 178, 126, 64, 35, 16, -30, -64, -71, -66, -59, -61, -66, -69, -71, -66, -42, -21, -19, -35, -57, -57, -33, -7, -11, -45, -69, -61, -40, -45, -66, -64, -54, -52, -42, -40, -40, -40, -38, -38, -47, -52, -38, -30, -38, -30, -2, 16, 19, 19, 26, 30, 28, 30, 30, 30, 49, 85, 88, 73, 52, 21, 16, 30, 30, 21, 23, 49, 52, -4, -35]"
1713890755433707010,"[161, 614, 983, 802, 152, -183, -11, 38, -80, -66, -28, -19, 11, 16, 21, 30, 16, 33, 59, 78, 104, 111, 109, 126, 149, 166, 183, 197, 204, 204, 216, 230, 202, 159, 138, 99, 52, 9, -35, -61, -64, -80, -97, -83, -59, -61, -83, -69, -38, -33, -35, -33, -33, -30, -21, -19, -35, -47, -28, -9, -19, -19, 7, 11, -7, -7, 28, 47, 28, 14, 30, 40, 45]"
1713890755994775353,"[54, 54, 45, 47, 66, 71, 66, 59, 35, 28, 52, 59, 47, 54, 64, 59, 69, 83, 76, 61, 64, 92, 119, 116, 109, 92, 38, 26, 61, 71, 59, 64, 73, 69, 30, 35, 276, 754, 1064, 745, 85, -88, 104, 49, -54, 21, 42, -21, -26, -7, -7, -7, -19, -16, 2, -14, -30, 2, 26, 30, 52, 66, 71, 109, 147, 157, 173, 190, 180, 164, 135, 83, 40]"
1713890756555843696,"[2, -38, -42, -14, -14, -38, -33, -23, -19, 0, 0, -23, -30, -16, -16, -16, -4, 0, -2, 0, 9, 28, 38, 35, 42, 47, 45, 45, 47, 57, 57, 52, 66, 78, 69, 73, 78, 71, 78, 88, 69, 47, 54, 61, 57, 64, 69, 57, 57, 61, 64, 66, 61, 76, 102, 111, 119, 116, 88, 76, 83, 78, 83, 90, 83, 78, 59, 7, 92, 483, 966, 992, 385]"
1713890757116912039,"[-114, -30, 61, -64, -73, -35, -69, -69, -52, -66, -49, -21, -26, -23, 4, 9, 21, 47, 59, 71, 92, 114, 142, 171, 197, 214, 216, 221, 221, 195, 145, 95, 47, 0, -38, -47, -40, -47, -61, -54, -14, 11, -11, -23, -9, -23, -33, 0, 26, 21, 19, 30, 42, 42, 38, 45, 57, 59, 66, 78, 73, 66, 78, 92, 92, 83, 76, 78, 85, 85, 71, 66, 71]"
1713890757677980382,"[66, 64, 73, 76, 71, 80, 76, 85, 130, 138, 128, 159, 173, 169, 161, 123, 88, 83, 88, 76, 66, 73, 64, 19, -26, 80, 499, 1037, 1030, 278, -254, -92, -4, -161, -140, -76, -114, -123, -92, -73, -61, -61, -64, -30, 7, 2, -19, -2, 35, 57, 95, 142, 138, 111, 152, 204, 221, 240, 252, 221, 164, 111, 76, 28, -9, 4, -4, -73, -97, -61, -45, -45, -21]"
1713890758239048725,"[-4, -9, 2, 7, 9, 9, 2, 21, 38, 9, -11, 7, 23, 23, 33, 40, 23, 14, 14, -14, -40, -30, -35, -33, 2, 7, -16, -14, -9, -26, -2, 35, 30, 26, 35, 9, -40, -61, -83, -133, -192, -245, -314, -388, -468, -571, -499, -59, 514, 561, -154, -690, -457, -214, -278, -230, -90, -33, 9, 69, 116, 169, 228, 257, 245, 238, 257, 249, 214, 207, 218, 226, 240]"
1713890758800117072,"[257, 252, 266, 304, 314, 345, 368, 238, 73, 47, 11, -78, -90, -30, 23, 30, -9, -16, -4, -4, 16, 38, 30, 26, 23, 26, 42, 42, 21, 28, 59, 64, 38, 21, 33, 40, 52, 80, 78, 59, 61, 61, 52, 26, 7, 19, 26, 21, 26, 28, 28, 33, 47, 71, 97, 99, 88, 80, 88, 95, 95, 88, 97, 130, 128, 57, 2, 249, 866, 1342, 990, 76, -226]"
1713890759361185415,"[49, 23, -128, -66, -47, -92, -57, -30, -54, -61, -49, -35, -19, -4, -2, -7, 4, 38, 61, 71, 90, 109, 135, 161, 169, 159, 147, 128, 88, 33, -11, -45, -73, -95, -109, -114, -99, -85, -85, -78, -61, -54, -49, -42, -30, -21, -16, -9, 2, 14, 21, 28, 40, 49, 52, 45, 30, 30, 42, 47, 49, 40, 21, 47, 97, 85, 49, 54, 28, -47, -57, -7, -4]"
1713890759922253758,"[-35, -11, 30, 42, 57, 83, 83, 33, -4, 23, 59, 38, -14, -35, -11, -19, -57, -14, 268, 825, 1223, 818, -7, -185, 54, -35, -140, -23, 9, -49, -45, -7, -4, -7, 33, 54, 19, 28, 80, 83, 85, 126, 147, 147, 169, 214, 249, 249, 245, 252, 247, 226, 178, 109, 45, -11, -47, -59, -73, -83, -71, -85, -111, -97, -76, -76, -59, -45, -59, -66, -59, -35, 0]"
1713890760483322101,"[-2, -19, 7, 26, 19, 28, 38, 28, 9, -14, -47, -66, -30, 23, 33, 7, 7, 9, -23, 16, 119, 114, 54, 73, 83, 54, 49, 45, 52, 92, 92, 61, 90, 111, 73, 71, 116, 145, 135, 76, 52, 102, 78, -19, -4, 92, 135, 140, 111, 47, 135, 590, 1164, 1178, 402, -207, -45, 107, -30, -23, 23, -40, -47, 0, 4, -4, 11, 33, 42, 69, 78, 52, 85]"
1713890761044410791,"[119, 71, 85, 176, 190, 180, 221, 238, 228, 226, 202, 180, 147, 45, -4, 2, -92, -126, -40, -47, -92, -97, -92, -64, -78, -97, -33, 11, -26, -47, -19, 2, -7, -14, 7, 19, -9, 0, 42, 33, 9, 7, -11, -4, 64, 95, 21, -47, -14, 26, 16, 16, 28, 40, 64, 66, 33, 52, 97, 80, 59, 76, 80, 66, 76, 92, 71, 88, 107, 83, 140, 178, 99]"
1713890761605428269,"[76, 123, 116, 59, 14, 61, 142, 109, 49, 28, -26, 97, 635, 1242, 1235, 485, -97, 7, 111, -33, -30, 40, 9, -16, 7, 57, 97, 76, 49, 71, 69, 45, 73, 99, 80, 97, 157, 185, 178, 169, 178, 204, 211, 199, 190, 157, 116, 85, 54, 14, -23, -61, -76, -61, -52, -61, -59, -45, -45, -35, -14, -11, -30, -23, 2, -4, -16, 0, 9, 4, 14, 28, 35]"
1713890762166496616,"[38, 33, 19, 11, 35, 64, 52, 16, 7, 26, 35, 38, 38, 38, 45, 49, 54, 64, 66, 59, 54, 45, 33, 45, 73, 92, 97, 80, 54, 59, 71, 54, 26, 28, 45, 52, 47, 14, 4, 240, 790, 1190, 835, 47, -166, 80, 47, -71, 0, 33, -4, 9, 38, 30, 28, 40, 52, 59, 76, 85, 88, 109, 130, 130, 149, 183, 199, 221, 249, 249, 242, 242, 223]"
1713890762727564959,"[178, 126, 78, 38, 7, -26, -47, -52, -69, -78, -85, -95, -95, -92, -92, -92, -85, -69, -52, -49, -52, -40, -28, -30, -42, -49, -49, -38, -26, -23, -14, 0, -4, -4, 11, 23, 26, 30, 35, 35, 45, 59, 61, 47, 38, 35, 23, 21, 40, 52, 47, 47, 54, 57, 61, 92, 121, 107, 71, 64, 73, 69, 61, 66, 76, 83, 88, 52, 2, 169, 690, 1199, 1030]"
1713890763288633302,"[235, -171, 40, 80, -69, -26, 19, -45, -52, -9, -9, -7, 21, 23, 23, 47, 45, 19, 26, 42, 40, 66, 99, 104, 128, 169, 166, 145, 147, 142, 102, 42, 2, -16, -38, -80, -130, -128, -97, -95, -97, -76, -66, -73, -57, -33, -21, -11, -14, -21, -16, 2, 23, 33, 23, 16, 21, 35, 57, 49, 40, 64, 66, 49, 59, 76, 61, 45, 57, 73, 57, 35, 45]"
1713890763849701645,"[57, 54, 69, 90, 73, 47, 59, 73, 52, 40, 45, 35, 45, 57, 33, 23, 38, 40, 40, 47, 49, 52, 40, 2, -14, 178, 685, 1149, 959, 178, -214, 7, 59, -83, -40, 28, 45, 59, 11, 14, 69, 59, 45, 71, 78, 64, 73, 90, 97, 109, 130, 142, 154, 171, 185, 204, 214, 202, 171, 130, 85, 38, 2, -16, -30, -40, -40, -33, -28, -23, -14, -14, -21]"
1713890764410769988,"[-9, -4, -21, -19, 0, 2, 7, 0, -33, -14, 30, 23, 4, 4, -2, 0, 11, 9, 0, 0, 2, 11, 21, 26, 28, 26, 26, 45, 57, 49, 47, 52, 69, 99, 119, 104, 73, 59, 73, 85, 80, 78, 90, 97, 92, 66, 26, 164, 676, 1244, 1152, 340, -157, 42, 123, -35, -9, 69, 33, 14, 33, 42, 59, 78, 73, 59, 59, 54, 59, 80, 80, 71, 90]"
1713890764971838331,"[109, 126, 149, 166, 159, 147, 140, 135, 95, 19, -40, -64, -78, -90, -90, -99, -102, -80, -61, -61, -49, -30, -38, -35, -7, -4, -4, 16, 21, 9, 21, 42, 42, 38, 35, 45, 69, 61, 54, 71, 61, 40, 59, 69, 52, 59, 83, 85, 78, 80, 88, 90, 85, 85, 80, 73, 88, 104, 97, 90, 83, 71, 76, 69, 47, 54, 78, 80, 76, 80, 54, -2, 142]"
1713890765532906678,"[668, 1199, 1035, 207, -240, 14, 121, -52, -83, -47, -38, 7, 11, -14, 26, 71, 45, 19, 61, 95, 69, 78, 121, 130, 135, 171, 199, 202, 204, 221, 228, 199, 169, 130, 54, 0, -7, -42, -71, -42, -61, -121, -92, -38, -33, -42, -49, -35, -9, -11, -30, -52, -45, -16, -14, -28, -14, 2, -4, 4, 28, 16, 0, 14, 0, -23, 11, 28, 7, 21, 28, 9, 16]"
1713890766093975021,"[30, 40, 49, 47, 54, 66, 69, 66, 57, 66, 88, 85, 61, 42, 35, 54, 78, 73, 71, 90, 92, 73, 42, 0, 40, 376, 940, 1173, 642, -49, -80, 114, 7, -42, 49, 28, -11, 30, 66, 97, 126, 69, 14, 64, 92, 52, 54, 90, 104, 123, 152, 164, 176, 197, 204, 192, 188, 180, 135, 92, 71, 19, -21, -21, -47, -80, -80, -88, -95, -85, -80, -80, -57]"
1713890766655012846,"[-40, -54, -52, -42, -49, -38, -11, -2, -11, -33, -40, -7, 2, -26, -33, -42, -47, 7, 57, 21, -26, -26, -11, 2, 33, 52, 47, 38, 30, 38, 45, 33, 33, 57, 73, 71, 11, -54, -35, 35, 66, 83, 107, 95, 57, 40, 26, -4, 0, 40, 59, 45, 23, -14, -59, 114, 666, 1211, 1044, 197, -278, -66, 30, -80, -42, -4, -52, -49, -11, -4, -7, 7, 33]"
1713890767216081189,"[47, 45, 66, 92, 92, 78, 49, 52, 111, 164, 183, 199, 214, 209, 192, 178, 157, 95, 40, 4, -61, -111, -102, -80, -85, -80, -26, -21, -78, -102, -97, -97, -102, -80, -45, -40, -66, -59, -28, -28, -69, -49, 30, 38, -26, -26, 14, 4, -4, 30, 33, 9, 38, 61, 40, 54, 73, 35, 21, 78, 102, 38, 52, 123, 92, 80, 130, 104, 47, 42, 64, 80, 83]"
1713890767777149532,"[83, 90, 61, -30, -14, 328, 942, 1356, 971, 90, -173, 54, -16, -109, 7, 9, -42, -2, 11, 2, 47, 52, 11, 11, 23, 4, 14, 78, 99, 49, 76, 176, 183, 130, 159, 228, 245, 230, 245, 216, 135, 97, 69, -7, -42, 21, 66, 9, 14, 95, 61, -9, -4, 2, 2, 26, 38, 26, 7, -7, -7, 11, 42, 57, 33, -14, -19, 23, 42, 42, 49, 40, 35]"
1713890768338217875,"[69, 92, 61, 23, 19, 42, 61, 45, 42, 42, 33, 35, 35, 61, 116, 99, 11, -16, 30, 38, 23, 38, 42, 61, 64, -2, -35, 138, 637, 1187, 1064, 240, -197, 21, 61, -99, -40, 40, -9, -21, 11, 7, 0, 9, 21, 73, 104, 66, 61, 102, 111, 97, 104, 135, 159, 183, 214, 223, 209, 202, 197, 178, 140, 114, 111, 76, 28, 21, 23, 9, -4, -7, -2]"
1713890768899255704,"[14, 21, 11, -16, -40, -52, -47, -35, -61, -95, -80, -80, -97, -76, -61, -95, -73, 2, -2, -30, -7, -2, -21, -14, 0, 7, 16, 16, 11, 11, 38, 78, 92, 80, 69, 59, 47, 54, 59, 52, 66, 71, 52, 35, -21, -64, 154, 709, 1199, 1004, 216, -173, 19, 35, -90, -26, 4, -47, -26, 23, 28, 21, 33, 42, 40, 52, 76, 80, 80, 95, 119, 140, 154]"
1713890769460324047,"[161, 147, 135, 159, 171, 135, 85, 66, 88, 64, 0, -19, -30, -61, -64, -49, -35, -35, -45, -23, -7, -21, -23, -7, 0, -2, 2, 2, -21, -28, -11, 7, 4, -23, -47, -38, -26, -26, -14, -4, -2, 0, -4, -11, -4, 14, 19, 14, 16, 23, 40, 73, 88, 73, 52, 45, 64, 78, 61, 52, 61, 66, 64, 57, 21, 38, 299, 773, 1016, 592, -64, -157, 42]"
1713890770021392390,"[-21, -95, -7, 14, -21, 2, 23, 16, 30, 28, -2, 14, 57, 66, 64, 80, 92, 102, 133, 161, 166, 178, 192, 192, 180, 161, 145, 116, 73, 45, 14, -14, -19, 4, 30, 21, 4, 21, 30, 21, 26, 40, 45, 59, 71, 64, 54, 61, 49, 40, 54, 49, 23, 9, 16, 16, 0, -7, -16, -28, -33, -33, -35, -33, -11, 14, 14, 4, 9, 11, 7, 14, 30]"
1713890770582460733,"[52, 64, 66, 61, 54, 45, 21, 7, 16, 19, 7, 14, 21, -9, -14, 178, 592, 923, 702, 71, -166, 33, 45, -66, -23, 11, -4, 11, 33, 30, 35, 52, 69, 80, 85, 90, 92, 104, 126, 152, 171, 173, 166, 176, 209, 223, 216, 249, 264, 180, 99, 59, 11, 9, 2, -2, 54, 78, 54, 69, 64, 30, 80, 149, 128, 97, 109, 121, 99, 83, 85, 66, 40]"
1713890771143498558,"[45, 40, 38, 83, 116, 59, -7, -11, -4, 4, 2, -38, -54, -28, -16, -11, -7, -26, -42, -21, 7, 11, -9, -33, -26, 4, 19, 7, -4, 4, 16, -4, -23, 9, 149, 483, 840, 742, 152, -180, -4, 76, -49, -47, 26, 23, 7, -7, -69, -69, 40, 88, 59, 66, 76, 71, 83, 95, 116, 161, 190, 190, 192, 202, 190, 188, 214, 204, 157, 133, 102, 23, -16]"
1713890771704566901,"[21, 26, -11, -4, 21, 21, 16, 7, -9, -14, -9, 7, 28, 14, -2, 28, 71, 66, 33, 21, 45, 66, 59, 49, 61, 83, 76, 45, 59, 73, 14, 2, 52, 28, 11, 78, 99, 26, -38, -42, -45, -47, -40, -21, -7, -28, -45, -11, -11, -61, 28, 414, 878, 897, 290, -207, -71, 66, -59, -52, 14, -28, -35, -9, -33, -9, 45, 35, 19, 49, 85, 97, 99]"
1713890772265635248,"[109, 135, 169, 164, 121, 123, 185, 199, 159, 147, 149, 121, 71, 33, 21, 26, 9, -30, -28, 19, 47, 11, -45, -40, 0, 14, 19, 14, 14, 21, 4, -14, 9, 21, 11, 26, 57, 76, 57, 38, 52, 66, 71, 69, 49, 30, 35, 57, 80, 83, 73, 64, 47, 40, 59, 83, 76, 45, 19, 4, 2, 4, -7, -28, -33, -7, 9, -14, -26, 140, 580, 968, 754]"
1713890772826683247,"[85, -183, 4, 14, -90, -28, 9, -47, -28, 40, 57, 33, 11, -14, -28, -4, 23, 30, 45, 57, 73, 119, 138, 109, 104, 114, 102, 116, 142, 126, 95, 66, 26, 2, 16, 30, 30, -2, -28, -7, 21, 23, 30, 30, 16, 19, 16, 14, 40, 47, 35, 57, 80, 69, 61, 61, 52, 54, 73, 80, 59, 61, 78, 66, 61, 85, 88, 73, 73, 80, 88, 90, 90]"
1713890773387741416,"[99, 109, 95, 78, 61, 45, 49, 42, -4, -16, 7, -4, -26, -28, -57, -30, 261, 737, 887, 385, -171, -119, 45, -78, -102, 19, 35, -21, 4, 54, 19, -14, 19, 47, 42, 61, 78, 64, 95, 152, 197, 228, 195, 147, 178, 238, 266, 249, 197, 185, 188, 119, 52, 85, 138, 119, 64, 35, 45, 61, 38, -2, 40, 80, 52, 33, 11, -7, 16, 26, 4, 26, 45]"
1713890773948809759,"[33, 38, 49, 45, 47, 33, 9, 42, 88, 54, 0, -45, -80, -64, -33, -19, 4, 7, -11, -14, -2, 16, 42, 49, 19, -9, -4, -9, -38, -66, -52, -28, -49, -35, 21, -40, -35, 397, 816, 606, 38, -185, -16, 14, -102, -76, -7, -14, -21, -9, 0, 19, 35, 47, 52, 69, 97, 90, 73, 85, 95, 123, 142, 133, 173, 199, 173, 169, 185, 176, 149, 121, 80]"
1713890774509878102,"[28, -11, -23, -21, -23, -61, -95, -47, -4, -9, 26, 52, 4, -16, 4, 4, 4, 19, 35, 47, 19, -11, -9, 11, 28, 33, 61, 90, 64, 16, 9, 49, 80, 80, 85, 83, 66, 71, 92, 73, 30, 49, 97, 97, 111, 126, 69, 35, 33, -2, -28, -14, -14, -45, -26, 59, 28, -114, -19, 423, 878, 875, 278, -223, -104, 40, -114, -164, -88, -99, -119, -54, -9]"
1713890775070946445,"[-26, -26, 4, 23, 23, 40, 66, 76, 92, 95, 85, 126, 171, 169, 161, 166, 178, 185, 164, 116, 64, 16, -2, -19, -49, -38, -7, -28, -69, -52, -11, 9, 14, 4, 11, 52, 52, 7, 11, 49, 26, -7, 33, 42, -7, -11, 19, 30, 45, 59, 61, 52, 54, 76, 80, 71, 78, 85, 59, 47, 52, 30, 21, 45, 49, 35, 45, 71, 78, 69, 61, 42, 2]"
1713890775632014792,"[-11, 4, 11, 9, 11, -21, -69, -42, -21, -7, 311, 859, 978, 399, -173, -142, 9, -97, -133, -40, -49, -88, -54, -28, -19, 4, 2, 4, 38, 52, 54, 61, 66, 80, 99, 97, 119, 180, 197, 185, 209, 209, 176, 169, 140, 76, 47, 42, 40, 30, 2, -19, -33, -33, -4, 7, 0, 9, 19, 11, 35, 64, 49, 35, 30, 21, 33, 45, 38, 38, 49, 61, 64]"
1713890776193062791,"[49, 42, 59, 69, 78, 90, 80, 69, 49, 14, 4, 23, 38, 42, 30, 19, 21, 16, 9, 7, -2, -4, 7, 26, 28, 28, 33, 16, -14, -7, 16, 16, 16, 47, 49, -2, -26, 28, 302, 806, 1037, 564, -61, -97, 61, -61, -126, -21, -11, -45, -16, -4, -4, 23, 33, 14, 19, 59, 66, 54, 71, 95, 92, 104, 145, 173, 183, 199, 202, 176, 166, 176, 145]"
1713890776754120960,"[71, 23, 14, 19, 16, 11, 9, 0, 4, 35, 49, 19, -9, -7, -9, -16, 11, 38, 11, -23, -14, 14, 19, 19, 11, 0, 4, 23, 35, 19, -14, -7, 19, 11, -11, -7, -16, -47, -47, -28, -21, -28, -28, -9, 16, 28, 28, 21, 16, 4, -4, 2, 14, 16, 19, 26, 33, 30, 7, 14, 223, 666, 971, 666, 19, -152, 66, 40, -61, 4, 28, -4, 14]"
1713890777315189303,"[33, 23, 38, 57, 52, 38, 38, 64, 83, 69, 71, 99, 109, 123, 166, 185, 180, 197, 207, 188, 161, 130, 92, 52, 28, 21, 9, -2, -4, -23, -47, -33, -9, -9, 0, 19, 26, 23, 23, 21, 30, 35, 28, 14, 14, 23, 28, 28, 26, 26, 21, 11, 7, 0, 0, 7, 4, 9, 19, 21, 19, 28, 33, 30, 40, 45, 40, 40, 35, 23, 28, 57, 78]"
1713890777876257646,"[78, 71, 66, 66, 59, 49, 35, 23, 33, 54, 57, 33, -4, 54, 388, 880, 1018, 480, -107, -66, 114, 0, -73, -23, -21, -30, 0, 11, 0, 9, 35, 42, 49, 73, 85, 85, 97, 126, 149, 164, 192, 221, 235, 249, 252, 235, 221, 188, 138, 104, 78, 49, 40, 33, 21, 33, 45, 35, 47, 61, 38, 33, 54, 52, 38, 35, 45, 57, 57, 47, 38, 23, 9]"
1713890778437325993,"[11, 21, 26, 23, 16, 23, 33, 38, 42, 35, 9, 11, 28, 23, 0, -21, -11, 0, -9, -16, -11, -9, -7, 7, 23, 30, 30, 33, 30, 26, 57, 90, 80, 80, 85, 57, 52, 80, 76, 54, 59, 69, 69, 76, 52, 35, 235, 718, 1087, 802, 78, -164, 73, 78, -52, -11, 30, 0, 7, 33, 38, 47, 61, 64, 73, 99, 109, 102, 114, 128, 133, 159, 195]"
1713890778998389250,"[211, 216, 228, 242, 240, 226, 202, 140, 66, 19, -21, -64, -85, -92, -95, -92, -95, -99, -102, -97, -88, -78, -78, -69, -57, -52, -40, -38, -35, -19, -11, -11, -7, -2, 4, 14, 16, 21, 26, 23, 28, 40, 33, 14, 9, 21, 33, 38, 33, 33, 45, 49, 52, 66, 78, 80, 83, 90, 88, 76, 83, 99, 97, 90, 92, 88, 83, 85, 95, 109, 123, 126, 99]"
1713890779559432161,"[61, 30, 16, 21, 30, 38, 47, 42, 33, 16, -33, 49, 457, 971, 1030, 404, -166, -76, 83, -40, -64, 2, -14, -16, 21, 28, 16, 23, 38, 54, 66, 64, 61, 54, 61, 92, 111, 116, 130, 149, 159, 161, 157, 159, 145, 109, 80, 45, 7, -23, -42, -52, -64, -54, -33, -28, -38, -33, -19, -14, -9, -14, 0, 23, 30, 11, -19, -21, 2, 7, 19, 42, 45]"
1713890780120500504,"[33, 30, 30, 42, 54, 54, 52, 28, 7, 26, 54, 52, 35, 33, 52, 57, 52, 71, 73, 59, 69, 78, 71, 78, 83, 61, 59, 76, 80, 85, 85, 69, 69, 85, 97, 111, 121, 121, 126, 119, 95, 88, 88, 88, 97, 107, 111, 111, 85, 49, 104, 397, 864, 1054, 592, -38, -80, 111, 7, -97, -47, -35, -54, -35, -21, -28, -30, -21, -7, 7, 16, 23, 30]"
1713890780681568847,"[45, 69, 95, 114, 130, 147, 169, 188, 199, 204, 197, 169, 128, 92, 54, 7, -45, -71, -59, -54, -57, -45, -33, -28, -21, -7, 4, 16, 16, 9, 21, 38, 38, 35, 38, 40, 47, 49, 54, 59, 57, 52, 57, 71, 76, 66, 64, 61, 49, 47, 59, 45, 16, 9, 19, 30, 38, 35, 38, 47, 52, 54, 61, 64, 66, 73, 71, 78, 80, 76, 99, 130, 130]"
1713890781242637190,"[116, 95, 78, 80, 88, 88, 78, 52, 35, 42, 26, -9, 135, 568, 999, 892, 211, -195, -19, 45, -104, -90, -30, -57, -52, -23, -21, -14, 2, 9, 16, 21, 35, 57, 71, 78, 97, 116, 126, 138, 164, 190, 204, 202, 178, 145, 116, 73, 16, -11, -21, -30, -40, -47, -42, -33, -23, -4, 7, 0, -2, 11, 23, 33, 40, 38, 35, 42, 57, 59, 47, 33, 30]"
1713890781803705533,"[45, 52, 54, 52, 40, 19, 19, 33, 45, 45, 45, 45, 54, 64, 64, 64, 64, 64, 71, 73, 78, 78, 76, 92, 116, 126, 116, 92, 66, 57, 54, 57, 69, 64, 42, 33, 4, -28, 169, 666, 1028, 735, 16, -238, -21, -23, -149, -92, -45, -71, -47, -23, -40, -30, 2, 9, 14, 33, 45, 54, 71, 76, 78, 104, 133, 142, 166, 223, 254, 211, 166, 169, 123]"
1713890782364743362,"[52, 26, 30, 49, 47, 49, 71, 16, -33, 16, 69, 95, 145, 178, 161, 147, 166, 169, 135, 102, 73, 45, 33, 26, 7, -2, 9, 11, -2, -59, -92, -57, -54, -64, -33, -14, -14, -11, -14, -23, -9, 11, 11, 21, 45, 49, 59, 90, 69, 0, -2, 38, 33, 19, 40, 69, 38, -16, 33, 333, 802, 973, 485, -116, -116, 71, -33, -99, -23, -40, -83, -45, -23]"
1713890782925811705,"[-38, -26, 0, 9, 16, 16, 28, 47, 47, 73, 109, 102, 92, 126, 180, 197, 176, 195, 230, 128, -2, -2, -23, -80, -54, -40, -78, -64, -42, -52, -40, -21, -16, -9, -2, 9, 33, 45, 40, 42, 40, 40, 61, 66, 49, 52, 69, 64, 47, 49, 54, 61, 64, 61, 78, 92, 64, 64, 123, 159, 130, 111, 107, 71, 54, 85, 109, 97, 97, 107, 99, 99, 76]"
1713890783486880048,"[97, 423, 928, 1009, 430, -97, 14, 173, -33, -121, 9, 40, 2, 16, 30, -4, -35, 2, 73, 85, 35, 16, 52, 78, 123, 159, 111, 88, 180, 259, 209, 128, 149, 164, 140, 109, -16, -116, -85, -49, -52, -57, -83, -66, -35, -71, -42, 7, -38, -40, 11, 30, 23, 0, 21, 40, -9, 9, 54, 42, 40, 26, 16, 45, 71, 61, 14, 11, 64, 54, -14, 7, 116]"
1713890784047948391,"[140, 61, 21, 42, 69, 73, 54, 4, -42, -28, 19, 11, -64, -69, 176, 649, 1064, 868, 95, -245, -9, 26, -90, -49, -19, -57, -47, -7, -2, -19, -7, 28, 49, 57, 57, 59, 80, 109, 116, 138, 171, 183, 202, 233, 238, 223, 218, 202, 140, 73, 64, 69, 19, -23, -2, 16, 9, 14, 9, -14, -16, -9, 7, 23, 2, -23, -4, 7, 2, -2, -26, -35, -38]"
1713890784608986216,"[-42, -35, -30, -30, -28, -23, -21, -14, 2, -11, -47, -19, 33, 9, -33, -9, 26, 23, 30, 42, 30, 23, 35, 38, 38, 38, 30, 26, 35, 21, -7, 123, 554, 1037, 1004, 321, -173, -19, 85, -54, -33, 38, 4, 2, 30, 23, 30, 59, 59, 52, 64, 71, 71, 69, 92, 126, 133, 149, 180, 197, 209, 216, 216, 211, 176, 104, 64, 40, 0, -4, -9, -40, -23]"
1713890785170054559,"[0, -19, -16, 7, 28, 28, -7, -11, 4, -9, 9, 42, 35, 30, 19, 26, 66, 38, -4, 52, 71, 35, 69, 104, 49, -7, 42, 85, 38, -2, 28, 59, 35, 2, 7, 28, 45, 40, 11, 19, 59, 28, -26, -2, 47, 54, 64, 92, 92, 73, 52, 42, 61, 71, 61, 85, 97, 26, -47, 78, 502, 975, 966, 333, -161, -52, 54, -59, -47, 19, -19, -28, 11]"
1713890785731122906,"[-4, -40, -21, -9, -28, -4, 49, 47, 28, 40, 40, 61, 135, 173, 142, 128, 171, 207, 211, 223, 190, 99, 42, 52, 66, 54, 35, 4, -2, 30, 35, 14, 21, 49, 40, 2, 21, 54, 61, 73, 71, 80, 97, 73, 40, 52, 88, 97, 83, 90, 90, 40, 42, 73, 45, 40, 73, 59, 33, 52, 66, 57, 45, 19, 14, 49, 40, 16, 23, 7, -4, 19, 40]"
1713890786292191249,"[49, 28, 9, 30, 33, 9, 9, 21, 2, 9, 54, 54, 0, -47, -49, 104, 495, 873, 785, 202, -140, 21, 40, -145, -85, 23, -40, -33, 42, 9, -11, 47, 66, 52, 71, 99, 85, 59, 102, 140, 116, 126, 171, 176, 159, 145, 147, 159, 149, 116, 83, 71, 76, 49, -38, -88, -33, 4, -21, -19, 16, 21, 14, 30, 38, 28, 38, 47, 45, 42, 52, 59, 71]"
1713890786853229074,"[92, 95, 73, 61, 76, 99, 97, 76, 76, 78, 59, 35, 30, 30, 23, 21, 26, 16, 2, -2, -7, -9, -7, 0, 7, 11, 30, 40, 47, 64, 49, 19, 9, 11, 16, 7, -26, -35, -4, 11, -14, -7, 190, 580, 830, 571, 23, -138, 38, 28, -64, -7, 33, 2, -4, 23, 42, 47, 52, 73, 88, 85, 92, 111, 130, 145, 154, 176, 197, 207, 223, 249, 252]"
1713890787414297417,"[233, 216, 204, 178, 121, 66, 30, -4, -19, -9, -7, -4, -2, -4, 4, 21, 28, 30, 35, 42, 45, 54, 61, 64, 61, 47, 47, 71, 54, 0, -4, 21, 16, 2, 9, 11, 0, -7, -11, -16, -14, -16, -28, -28, -16, -11, -4, -4, -11, -11, -2, 19, 52, 59, 42, 30, 26, 23, 28, 28, 21, 30, 45, 47, 30, -16, 47, 421, 940, 1040, 447, -147, -92]"
1713890787975365760,"[73, -38, -66, 7, -19, -38, 7, 19, 14, 26, 14, 0, 23, 47, 59, 76, 83, 92, 121, 147, 169, 180, 171, 173, 192, 202, 190, 149, 85, 33, 9, -9, -23, -28, -38, -33, -16, -9, -4, 4, 4, 7, 21, 35, 35, 35, 35, 28, 28, 38, 38, 35, 38, 35, 28, 28, 16, 0, 2, 2, -11, -9, 0, -4, -2, 7, 4, 7, 19, 28, 23, 16, 33]"
1713890788536434103,"[64, 76, 71, 66, 57, 49, 45, 28, 16, 35, 47, 38, 23, -21, -30, 223, 792, 1187, 799, -2, -199, 35, -7, -109, -38, -9, -40, -16, 11, 11, 16, 23, 33, 47, 57, 64, 76, 88, 97, 121, 152, 173, 183, 204, 230, 228, 216, 214, 192, 145, 90, 40, 9, 2, -7, -11, -2, 0, -2, 9, 14, 2, -2, 7, 7, 2, 7, 7, -4, 0, 4, -9, -19]"
1713890789097477019,"[-14, -2, 0, -4, -9, -19, -35, -52, -52, -45, -54, -52, -33, -14, 4, -2, -26, -21, 7, 26, 26, 33, 30, 16, 30, 59, 47, 26, 45, 95, 135, 135, 88, 45, 52, 76, 80, 78, 78, 80, 76, 69, 19, -26, 166, 702, 1183, 966, 192, -145, 47, 45, -76, -11, 28, -11, 7, 30, 21, 38, 78, 85, 85, 83, 61, 69, 111, 126, 128, 152, 169, 173, 183]"
1713890789658540275,"[178, 161, 152, 154, 142, 85, 42, 23, -19, -59, -49, -42, -64, -88, -104, -99, -76, -57, -52, -57, -16, 33, -11, -59, -33, -28, -14, -2, 0, 38, 61, 80, 88, 80, 92, 97, 78, 61, 42, 23, 26, 28, 9, 2, 0, -2, 0, -4, 21, 47, 2, -21, 38, 83, 78, 85, 114, 126, 119, 97, 61, 47, 85, 119, 104, 76, 64, 57, 23, -9, 99, 447, 780]"
1713890790219608618,"[680, 161, -145, 7, 80, -35, -14, 40, -9, -19, 30, 19, 19, 42, -2, -4, 61, 71, 40, 57, 114, 128, 111, 133, 161, 159, 171, 197, 192, 178, 171, 152, 111, 66, 30, 16, 7, -16, -26, -26, -26, -30, -38, -38, -23, -11, -19, -16, 0, 2, 11, 19, 21, 28, 26, 23, 23, 14, 2, -7, -4, 9, 14, 19, 30, 42, 49, 47, 42, 40, 49, 57, 59]"
1713890790780676961,"[64, 69, 88, 111, 121, 102, 76, 66, 54, 40, 47, 57, 54, 59, 59, 23, 7, 185, 599, 935, 749, 126, -166, 28, 69, -59, -28, 26, 2, 4, 30, 28, 30, 52, 69, 71, 76, 85, 92, 109, 126, 138, 157, 180, 207, 230, 245, 247, 240, 218, 159, 99, 57, -2, -45, -49, -52, -47, -40, -47, -57, -49, -40, -45, -40, -26, -21, -11, -7, -16, -21, -21, -28]"
1713890791341714786,"[-30, -33, -21, -11, -28, -57, -66, -57, -45, -42, -42, -33, -11, 2, 9, 21, 23, 28, 52, 69, 71, 71, 47, 16, 11, 42, 52, 19, 11, 42, 54, 19, -11, 157, 611, 1030, 856, 149, -190, 14, 45, -83, -19, 30, -45, -61, -14, -21, -33, 4, 38, 49, 57, 69, 78, 102, 133, 140, 145, 159, 178, 207, 235, 245, 245, 249, 216, 133, 78, 64, 33, -9, -14]"
1713890791902783129,"[4, 7, -2, -2, 11, 19, 26, 38, 23, 0, 9, 30, 33, 42, 38, 14, 11, 30, 42, 40, 35, 23, 2, 0, 14, 4, -9, -2, -2, -9, -9, -9, -9, -9, -11, 9, 52, 45, -4, -11, -7, -28, -11, 14, 11, 14, 21, 19, 0, -52, -14, 318, 871, 1121, 599, -116, -138, 85, -42, -114, 2, -2, -52, -9, 21, 11, 11, 16, 35, 64, 64, 42, 59]"
1713890792463851476,"[107, 126, 138, 169, 192, 199, 216, 240, 247, 242, 218, 157, 90, 47, 11, -14, -16, -33, -42, -19, -14, -28, -21, -7, 2, 11, 30, 57, 71, 61, 30, 19, 30, 23, -2, -2, 21, 42, 33, -2, -23, -26, -9, 26, 28, 4, 4, -2, -11, 2, 19, 19, 14, -9, -30, -26, -11, -4, -2, 4, 16, 21, 0, -35, 16, 333, 849, 1054, 537, -114, -116, 83, -23]"
1713890793024919819,"[-76, 14, 0, -40, 7, 42, 35, 49, 52, 9, 2, 33, 33, 19, 45, 83, 102, 114, 149, 183, 188, 199, 211, 176, 135, 116, 69, 14, 2, 0, -11, -16, -16, -7, 14, 26, 30, 40, 30, 16, 42, 57, 42, 35, 35, 42, 54, 61, 59, 49, 45, 54, 61, 61, 64, 66, 66, 71, 69, 64, 69, 59, 45, 71, 99, 97, 95, 80, 47, 38, 14, -21, 2]"
1713890793585957644,"[26, -7, -19, -21, -66, -7, 333, 804, 933, 418, -171, -159, 7, -88, -111, -47, -83, -119, -80, -54, -42, -16, 0, 11, 14, 11, 21, 45, 61, 73, 90, 114, 145, 176, 199, 207, 209, 207, 192, 166, 130, 80, 38, 14, 7, 0, -4, -7, -7, 0, 7, 14, 21, 23, 26, 35, 45, 59, 61, 52, 57, 69, 69, 69, 64, 59, 52, 38, 40, 54, 52, 49, 57]"
1713890794147025987,"[64, 76, 85, 73, 66, 76, 76, 78, 64, 16, 11, 45, 30, 19, 61, 85, 71, 57, 47, 40, 23, 9, 30, 49, 33, 7, -21, -66, -45, 230, 745, 1044, 652, -52, -188, 40, -11, -109, -30, -14, -66, -49, -7, 0, 0, 19, 33, 33, 38, 57, 66, 76, 99, 121, 138, 161, 183, 202, 209, 209, 211, 199, 161, 109, 64, 35, 19, 4, -19, -38, -28, -14, -11]"
1713890794708094330,"[-11, -16, -26, -21, -7, -9, -21, -28, -26, -14, 2, 11, 2, -2, 14, 30, 30, 7, -11, 7, 28, 30, 28, 23, 26, 38, 47, 52, 59, 59, 57, 61, 66, 80, 107, 104, 80, 73, 59, 59, 78, 76, 73, 80, 71, 64, 59, 21, 64, 395, 911, 1080, 507, -185, -171, 49, -69, -133, -45, -49, -66, -33, -19, -11, 2, 7, 7, 0, -11, 2, 26, 35, 47]"
1713890795269162677,"[88, 135, 164, 183, 190, 185, 197, 207, 176, 97, 26, 2, -14, -38, -49, -52, -57, -54, -35, -16, -23, -21, -7, -2, 16, 30, 23, 26, 42, 52, 59, 78, 83, 71, 83, 107, 111, 109, 104, 102, 90, 66, 66, 76, 83, 102, 121, 140, 180, 211, 176, 128, 133, 149, 130, 104, 102, 92, 78, 76, 52, 28, 33, 30, 26, 40, 49, 45, 40, 33, 23, 4, -21]"
1713890795830200502,"[-26, 2, 11, 9, 11, -9, -45, -57, -38, -30, -47, -33, -14, -42, -97, -64, 238, 797, 1161, 747, -69, -230, 49, -16, -145, -47, -4, -42, -30, -11, 0, 7, -9, -4, 28, 40, 42, 66, 76, 78, 123, 173, 195, 228, 273, 285, 295, 323, 330, 302, 249, 180, 95, 21, -11, -11, -16, -33, -54, -61, -40, -19, -16, -47, -76, -52, -16, -26, -33, -9, 0, 0, 9]"
1713890796391268845,"[21, 35, 35, 11, 23, 57, 47, 21, 30, 52, 49, 40, 42, 30, 14, 9, -9, -11, 7, 16, 7, -4, 2, 9, 16, 26, 16, 7, 28, 47, 52, 57, 57, 52, 57, 64, 73, 80, 76, 80, 92, 107, 142, 166, 149, 126, 114, 104, 88, 73, 59, 33, 35, 54, 47, 26, -26, -42, 195, 711, 1099, 814, 64, -195, 45, 52, -64, -14, 7, -33, -4, 35, 38]"
1713890796952337188,"[30, 30, 52, 45, 30, 73, 64, 0, 21, 76, 90, 119, 152, 164, 171, 185, 190, 183, 169, 140, 95, 49, 28, 7, -28, -57, -59, -49, -52, -38, -21, -40, -52, -40, -26, 4, 40, 57, 64, 90, 126, 138, 138, 121, 88, 61, 30, -4, -19, -23, -33, -35, -42, -61, -76, -59, -33, -30, -28, -19, -21, -16, 4, 16, 21, 28, 14, -2, 19, 47, 35, 26, 57]"
1713890797513405531,"[69, 54, 54, 69, 73, 76, 66, 57, 76, 90, 69, 42, 21, 26, 66, 92, 88, 88, 95, 83, 76, 78, 78, 76, 83, 88, 90, 92, 61, 23, 130, 514, 983, 971, 307, -173, -26, 66, -78, -76, -9, -38, -47, -21, -23, -45, -38, -26, -28, -14, 4, 9, 16, 42, 59, 66, 90, 114, 147, 180, 180, 183, 202, 192, 149, 99, 52, 11, -14, -45, -54, -54, -85]"
1713890798074473874,"[-85, -38, -33, -54, -28, 0, -14, -35, -35, -33, -30, -7, 11, -9, -21, -2, 2, 0, 14, 26, 28, 23, 11, -4, -23, -42, -40, -21, -19, -28, -14, 2, 7, 23, 33, 26, 30, 38, 38, 42, 49, 49, 49, 52, 57, 59, 73, 97, 107, 99, 95, 73, 54, 49, 47, 47, 49, 57, 61, 35, -23, 4, 309, 842, 1099, 609, -102, -159, 57, -38, -116, -42, -35]"
1713890798635542217,"[-47, -9, 14, 14, 23, 26, 14, 26, 59, 71, 45, 38, 76, 111, 128, 152, 166, 166, 180, 190, 180, 173, 154, 107, 64, 35, -2, -33, -38, -38, -30, -19, -9, 0, -4, -2, 11, 21, 26, 28, 21, 26, 42, 52, 59, 57, 49, 54, 64, 64, 59, 45, 35, 57, 66, 47, 61, 66, 30, 33, 71, 88, 80, 54, 38, 57, 73, 73, 83, 69, 42, 54, 90]"
1713890799196610564,"[119, 114, 64, 21, 30, 59, 69, 66, 47, -2, -33, -28, -59, -57, 214, 737, 1037, 609, -121, -233, 4, -69, -159, -66, -42, -76, -59, -30, -28, -14, 26, 33, 26, 59, 88, 90, 109, 140, 157, 183, 230, 257, 230, 207, 223, 230, 199, 166, 128, 71, 19, -7, -11, -19, -54, -59, -33, -21, -16, -9, -23, -23, 21, 38, 9, 2, 14, 26, 42, 61, 61, 52, 52]"
1713890799757678907,"[59, 52, 23, 9, 33, 57, 57, 42, 19, 16, 40, 49, 42, 45, 35, 35, 57, 49, 38, 64, 88, 92, 90, 83, 69, 47, 66, 95, 73, 23, -11, -9, -4, -45, 28, 480, 1097, 1066, 252, -230, -11, 57, -121, -80, -4, -49, -16, 61, 40, 0, 30, 49, 23, 14, 26, 59, 99, 114, 109, 97, 90, 116, 173, 218, 209, 171, 164, 173, 109, 26, 33, 2, -78]"
1713890800318716732,"[-54, -4, -28, -38, -2, 4, -7, 4, 0, 7, 57, 61, 57, 73, 33, 4, 19, 28, 73, 76, 9, 7, 111, 90, -71, -42, 80, 61, 47, 61, 38, 45, 57, 47, 73, 88, 57, 49, 111, 197, 242, 223, 176, 157, 164, 166, 176, 192, 178, 147, 126, 114, 95, 78, 226, 690, 1140, 897, 123, -180, 9, -19, -157, -99, -40, -76, -85, -54, -33, -30, -26, -26, -45]"
1713890800879785075,"[-69, -59, -4, 11, -16, -4, 38, 71, 99, 109, 97, 69, 73, 109, 95, 28, -19, -45, -73, -88, -88, -80, -69, -61, -59, -45, -35, -40, -16, 4, -11, -7, 23, 26, 2, 7, 40, 49, 28, 33, 59, 54, 49, 66, 59, 52, 78, 80, 35, 21, 57, 85, 88, 57, 21, 23, 47, 59, 47, 38, 54, 76, 97, 128, 135, 111, 116, 116, 71, 57, 85, 109, 83]"
1713890801440853418,"[35, 47, 47, 76, 383, 899, 1128, 649, -42, -116, 92, 4, -71, 35, 23, -83, -66, -4, -7, 0, 19, 26, 35, 57, 73, 78, 71, 80, 130, 135, 102, 157, 202, 173, 183, 185, 152, 152, 116, -7, -71, -54, -80, -104, -85, -111, -138, -114, -99, -97, -85, -80, -83, -78, -57, -42, -45, -30, -4, -19, -26, 0, 4, 2, 19, 21, 23, 35, 33, 28, 35, 35, 28]"
1713890802001921761,"[30, 45, 61, 49, 47, 69, 59, 21, 23, 45, 21, -7, 26, 52, 21, 23, 52, 2, -42, 85, 473, 964, 1054, 442, -169, -76, 121, -30, -92, 11, 0, -40, 2, 26, 21, 35, 59, 54, 21, 21, 54, 61, 61, 109, 147, 152, 173, 209, 218, 223, 242, 247, 218, 161, 104, 66, 38, 9, -14, -26, -21, -16, -7, 4, -2, -16, -16, -4, 33, 45, 11, 14, 33]"
1713890802562990108,"[7, 30, 104, 59, -33, -45, 16, 71, 0, -90, -26, 47, 4, -19, 35, 19, -45, -45, -30, -38, -40, -26, 42, 111, 83, 4, -26, 4, 33, 9, -28, -30, -49, -92, -11, 383, 928, 1061, 447, -207, -138, 49, -107, -107, 35, -19, -92, -26, 23, 4, 19, 54, 59, 49, 45, 61, 88, 111, 121, 133, 152, 171, 202, 230, 230, 245, 278, 245, 173, 142, 109, 61, 35]"
1713890803124058451,"[33, 33, 30, 19, 35, 123, 216, 245, 249, 252, 238, 183, 102, 64, 59, 28, -2, -2, 0, -7, -9, 7, 11, -11, -16, -2, -16, -14, 23, 33, 4, 2, 21, 28, 33, 45, 47, 9, -23, 19, 88, 97, 33, -28, -16, -11, -49, -42, -14, -19, -14, 4, -2, -21, -30, 16, 302, 830, 1087, 590, -95, -119, 97, -4, -80, 7, 11, -14, 26, 33, 11, 26, 47]"
1713890803685096276,"[47, 54, 61, 61, 66, 90, 135, 145, 109, 123, 192, 226, 209, 204, 218, 199, 123, 57, 49, 30, -30, -80, -83, -69, -61, -54, -64, -78, -69, -45, -30, -30, -30, -23, -21, -26, -16, -11, -16, -7, 9, 9, 4, 7, 7, 11, 23, 28, 26, 30, 35, 21, 28, 49, 47, 40, 45, 47, 52, 54, 47, 42, 38, 33, 35, 54, 54, 23, 16, 28, 4, -23, -28]"
1713890804246164619,"[-33, -35, -14, 4, -7, -14, -16, -71, -85, 192, 766, 1142, 742, -85, -295, -33, -57, -149, -80, -83, -102, -38, -21, -57, -52, -26, -23, -21, 9, 21, 16, 38, 69, 88, 114, 142, 161, 188, 211, 214, 211, 202, 161, 114, 78, 47, 38, 40, 14, -14, -4, -4, -14, -16, -7, 28, 49, 23, 26, 40, 9, -4, 23, 33, 19, 26, 57, 78, 61, 49, 71, 73, 54]"
1713890804807232962,"[76, 76, 16, 30, 99, 66, 7, 16, 28, 16, -4, -2, 40, 66, 23, -21, 11, 47, 19, 0, -4, -19, -26, 0, 33, 33, 21, 9, -2, -2, -30, -66, 111, 633, 1149, 1042, 304, -128, 40, 69, -69, -2, 42, -14, 7, 2, -16, 57, 80, 16, 0, 45, 102, 121, 95, 88, 109, 133, 154, 176, 221, 245, 238, 254, 211, 116, 119, 133, 16, -85, -66, -9, 49]"
1713890805368301305,"[38, 0, 52, 104, 80, 19, -11, -7, -54, -66, -28, -78, -123, -80, -33, -33, -40, -16, -16, -23, 30, 38, -23, 23, 80, 16, 0, 59, 49, 35, 59, 23, -4, 23, 38, 61, 59, 7, -2, -4, -23, 0, 64, 69, -4, 2, 102, 80, -16, 11, 69, 52, 35, 26, 14, 14, 121, 540, 1125, 1190, 452, -169, -78, 54, -66, -88, -23, -16, -33, -35, -16, 28, 47]"
1713890805929369652,"[33, 54, 78, 11, -45, 11, 66, 76, 83, 92, 123, 157, 161, 147, 161, 188, 180, 154, 97, 49, 57, 40, 2, 11, 38, 45, 57, 66, 47, 38, 49, 47, 30, 26, 33, 42, 38, 45, 61, 45, 26, 45, 66, 69, 57, 52, 57, 61, 66, 80, 76, 42, 26, 30, 16, -2, -11, -21, -11, 7, 23, 47, 30, -35, -52, -14, -7, -9, -4, -11, -9, 2, -23]"
1713890806490407477,"[-83, 57, 566, 1099, 994, 249, -180, -16, 26, -104, -64, -14, -45, -45, -33, -35, -14, 14, 16, 11, 11, 28, 45, 42, 42, 83, 133, 142, 159, 195, 204, 202, 214, 216, 185, 159, 138, 85, 38, 19, 11, 38, 59, 42, 42, 83, 85, 45, 38, 47, 28, 11, 23, 35, 21, 2, 9, 35, 42, 33, 30, 33, 45, 47, 38, 28, 16, 16, 16, 11, 11, 14, 11]"
1713890807051475820,"[9, 21, 38, 42, 33, 7, -7, 9, 19, 9, -2, -7, -7, -21, -47, -66, 7, 340, 837, 985, 447, -133, -92, 71, -38, -73, 11, 14, -2, 26, 47, 54, 59, 57, 69, 90, 92, 99, 111, 92, 92, 135, 164, 183, 204, 211, 207, 207, 199, 176, 138, 85, 38, 9, -11, -28, -19, -14, -21, -11, -14, -40, -35, -14, -19, -9, 23, 33, 14, 23, 59, 80, 109]"
1713890807612544163,"[130, 83, 28, 42, 54, 28, 23, 23, -9, -26, 0, 2, -19, -4, 26, 38, 38, 9, -21, -14, -4, -4, 4, 9, 4, 9, 7, -38, -16, 264, 799, 1180, 821, 21, -190, 47, -16, -147, -59, -14, -57, -35, -2, -23, -21, 4, 16, 30, 42, 42, 57, 85, 97, 104, 133, 157, 178, 199, 214, 230, 228, 195, 173, 147, 88, 30, 2, -11, -19, -21, -16, -2, -7]"
1713890808173612506,"[-30, -23, -7, -2, -9, -26, -21, 0, 9, 19, 23, 14, 28, 59, 66, 71, 71, 76, 99, 99, 85, 109, 119, 90, 66, 61, 57, 47, 33, 28, 52, 83, 88, 54, 19, 7, 9, 9, 0, -4, -7, -11, -11, -45, -66, 176, 742, 1166, 856, 66, -207, 11, -4, -116, -38, -9, -61, -42, -14, -28, -28, -7, 16, 28, 11, 7, 45, 85, 97, 102, 119, 138, 164]"
1713890808734680849,"[214, 252, 242, 221, 209, 192, 159, 99, 38, 4, -16, -19, -2, -14, -26, -4, -11, -28, -2, 4, -14, 2, 30, 38, 40, 54, 66, 61, 54, 61, 66, 52, 47, 61, 69, 66, 66, 71, 69, 61, 59, 71, 80, 64, 54, 71, 69, 57, 69, 97, 97, 71, 61, 59, 49, 40, 16, 11, 45, 73, 57, 9, -21, -28, 121, 606, 1130, 975, 173, -226, -2, 38, -111]"
1713890809295749196,"[-49, 16, -45, -42, 14, 14, 14, 35, 14, -9, 7, 11, 4, 30, 66, 88, 102, 116, 147, 171, 176, 188, 197, 183, 149, 116, 83, 33, -14, -30, -26, -23, -16, -11, -11, -9, 4, 14, 19, 26, 30, 23, 7, 7, 26, 30, 21, 19, 26, 38, 45, 47, 42, 40, 47, 47, 49, 95, 111, 26, -28, 40, 80, 49, 47, 64, 59, 71, 99, 97, 88, 88, 64]"
1713890809856787021,"[40, 35, 14, 11, 47, 59, 40, 21, -11, -45, 64, 428, 866, 887, 283, -242, -138, 9, -119, -142, -76, -95, -92, -49, -38, -49, -45, -30, -21, -7, 21, 33, 16, 30, 78, 102, 123, 154, 171, 180, 202, 216, 211, 173, 123, 90, 59, 21, 7, 0, -16, -7, 2, -23, -21, 7, 9, 9, 33, 52, 59, 61, 71, 66, 35, 23, 26, 4, -9, 2, 4, 9, 26]"
1713890810417855364,"[19, 11, 30, 47, 49, 38, 23, 26, 42, 78, 107, 57, -9, 11, 54, 42, 28, 38, 38, 26, 30, 28, -4, 45, 383, 935, 1178, 642, -78, -116, 80, -33, -90, 0, -9, -49, -30, -23, -33, -26, -23, -19, 0, 2, 9, 40, 52, 54, 83, 114, 135, 159, 185, 197, 183, 149, 121, 85, 33, -19, -64, -83, -73, -73, -85, -83, -59, -45, -45, -38, -23, -14, -2]"
1713890810978923707,"[4, 7, 9, 4, 2, 9, 14, 11, 7, -14, -16, 4, 9, 11, 16, 7, 2, 14, 19, 26, 28, 23, 28, 47, 71, 97, 104, 85, 54, 52, 73, 76, 66, 69, 76, 73, 54, 4, 47, 395, 990, 1254, 692, -40, -57, 133, 0, -76, -14, -26, -28, 4, -19, -45, -28, -26, -35, -14, 4, 16, 54, 99, 138, 188, 230, 247, 257, 257, 221, 173, 166, 164, 116]"
1713890811539961532,"[42, -4, -28, -45, -66, -85, -92, -88, -80, -69, -57, -64, -90, -88, -59, -54, -59, -45, -30, -19, 2, 16, 21, 14, 4, 16, 35, 19, -7, -11, -4, 26, 69, 61, 30, 40, 45, 42, 52, 54, 52, 49, 40, 30, 28, 21, 7, 7, 16, 28, 59, 88, 71, 109, 397, 885, 1118, 683, 26, -69, 111, 30, -54, -4, -14, -57, -38, -14, -14, -16, -26, -40, -33]"
1713890812101029875,"[-21, -21, -11, -2, 4, 30, 64, 88, 99, 97, 92, 104, 116, 109, 85, 45, 0, -21, -33, -49, -49, -52, -66, -52, -33, -28, -14, -4, -14, -23, -21, -11, -2, 9, 21, 21, 28, 33, 7, -19, -9, -2, -9, 9, 45, 40, 26, 42, 61, 66, 61, 61, 64, 61, 59, 66, 90, 114, 121, 116, 97, 69, 57, 66, 71, 73, 78, 78, 73, 45, -4, 104, 545]"
1713890812662098222,"[1090, 1116, 416, -161, -45, 80, -88, -111, -30, -59, -88, -59, -71, -80, -38, -16, -30, -26, 0, 0, -16, 0, 38, 64, 73, 95, 123, 138, 135, 130, 116, 102, 83, 30, -7, -21, -47, -57, -47, -49, -35, -21, -30, -26, -7, 0, 0, 0, 2, 11, 19, 16, 11, -9, -23, -2, 16, 16, 14, 23, 33, 40, 52, 57, 57, 54, 52, 54, 64, 71, 88, 114, 119]"
1713890813223176739,"[95, 78, 83, 85, 83, 90, 102, 97, 88, 57, -14, -26, 257, 847, 1240, 840, 30, -166, 76, 19, -114, -59, -38, -88, -71, -40, -64, -69, -49, -35, -16, 2, 0, 0, 23, 45, 54, 80, 109, 126, 152, 173, 183, 166, 130, 95, 71, 42, 9, -19, -40, -52, -52, -45, -30, -26, -30, -26, -7, 2, 2, 0, -4, 7, 23, 33, 35, 26, 21, 40, 54, 57, 66]"
1713890813784204390,"[71, 52, 40, 52, 57, 57, 42, 11, 9, 28, 28, 35, 66, 88, 85, 47, 2, 16, 33, 9, 30, 83, 85, 64, 40, -9, 0, 276, 880, 1366, 990, 61, -204, 76, 16, -138, -59, -33, -83, -69, -35, -11, -16, -33, -21, -4, 2, 11, 2, -2, 19, 54, 99, 133, 135, 138, 166, 190, 188, 171, 147, 95, 30, 19, 19, -14, -26, -16, -19, -11, -21, -40, -21]"
1713890814345272733,"[7, 28, 57, 61, 54, 52, 59, 49, 14, 4, 35, 45, 42, 80, 114, 97, 90, 102, 92, 80, 99, 126, 142, 164, 190, 202, 183, 164, 164, 147, 133, 149, 159, 149, 133, 99, 71, 59, 52, 59, 71, 59, 42, 54, 47, -7, -14, 199, 702, 1140, 899, 121, -202, 19, 23, -104, -42, -14, -83, -78, -33, -23, -26, -26, -21, -11, -16, -19, -2, 16, 35, 59, 78]"
1713890814906341076,"[90, 85, 80, 102, 116, 119, 114, 76, 33, 9, -38, -78, -78, -85, -85, -66, -95, -128, -109, -95, -76, -42, -40, -47, -30, -21, -28, -23, -14, -9, 0, 2, 9, 23, 23, 23, 30, 26, 21, 38, 42, 40, 45, 52, 66, 76, 71, 66, 66, 49, 52, 69, 66, 80, 109, 114, 109, 99, 78, 76, 88, 80, 76, 88, 88, 76, 42, -4, 114, 521, 966, 933, 309]"
1713890815467409419,"[-161, -38, 85, -52, -107, -54, -61, -92, -76, -54, -76, -80, -35, -7, -19, -4, 23, 9, 11, 64, 97, 104, 116, 128, 149, 183, 199, 190, 159, 123, 83, 52, 33, 11, 0, 0, -11, -23, -7, 9, 7, 4, -2, 4, 23, 33, 33, 42, 52, 52, 61, 78, 69, 42, 47, 76, 76, 61, 45, 11, 19, 61, 47, 11, 11, 35, 47, 38, 28, 11, 14, 40, 49]"
1713890816028447248,"[52, 42, 30, 35, 23, 4, 4, -7, -33, -28, -4, -7, -35, -73, -38, 280, 830, 1087, 576, -183, -242, 38, -54, -188, -97, -45, -78, -83, -45, -21, -38, -42, -4, 19, 9, 38, 71, 59, 76, 123, 135, 147, 190, 223, 235, 247, 257, 252, 221, 133, 49, 14, -35, -73, -52, -30, -45, -35, 2, 14, -11, -16, 9, 14, -4, 0, 16, 28, 30, 30, 40, 47, 42]"
1713890816589515591,"[54, 64, 52, 54, 83, 102, 97, 76, 59, 61, 66, 54, 47, 57, 64, 66, 61, 30, 52, 330, 814, 1016, 552, -64, -102, 90, 2, -80, -16, -2, -9, 21, 33, 21, 16, 23, 40, 40, 40, 59, 69, 64, 88, 121, 130, 114, 119, 166, 192, 171, 159, 154, 111, 54, 7, -47, -76, -83, -97, -80, -47, -47, -49, -42, -33, -14, 0, 7, 11, 16, 28, 52, 64]"
1713890817150583934,"[49, 52, 69, 57, 49, 69, 85, 73, 47, 35, 49, 71, 61, 33, 38, 61, 76, 92, 95, 57, 35, 61, 69, 64, 83, 92, 83, 76, 49, 52, 271, 721, 1071, 845, 133, -166, 59, 54, -92, -23, 42, 21, 23, 28, 28, 28, 16, 21, 52, 59, 33, 35, 76, 90, 80, 90, 104, 123, 171, 199, 173, 169, 190, 176, 126, 57, -4, -19, -11, -30, -52, -26, -4]"
1713890817711652277,"[-23, -19, -4, -19, -21, -11, -11, -14, 7, 30, 21, 0, -2, -2, 2, 26, 45, 33, 19, 30, 35, 38, 57, 49, 40, 57, 71, 90, 109, 78, 38, 30, 28, 33, 59, 59, 14, 7, 42, 42, 16, -7, 28, 311, 823, 1083, 614, -90, -145, 95, 26, -54, -2, 9, 7, 21, 30, 45, 45, 28, 35, 59, 71, 78, 83, 78, 85, 111, 114, 99, 111, 138, 178]"
1713890818272690102,"[199, 173, 152, 147, 95, 21, -2, -14, -59, -78, -69, -92, -99, -57, -30, -33, -21, -4, -11, -26, -2, 19, -14, -45, -28, -16, -16, -7, -7, -16, -7, 28, 33, 16, 28, 40, 38, 35, 42, 57, 61, 54, 76, 83, 47, 49, 80, 80, 76, 83, 90, 111, 138, 126, 102, 99, 92, 73, 76, 83, 64, 49, 69, 78, 47, 7, 95, 449, 956, 1121, 547, -145, -121]"
1713890818833758445,"[109, -14, -88, 4, 0, -49, -35, -23, -35, -30, -28, -33, -23, 9, 33, 0, -47, -23, 30, 54, 80, 109, 119, 142, 176, 183, 178, 157, 107, 33, -23, -40, -54, -80, -88, -83, -73, -61, -64, -64, -42, -28, -28, -7, 7, -16, -9, 14, 4, 4, 19, 23, 69, 61, -47, -23, 97, 61, 33, 126, 61, -61, 21, 42, -28, 23, 73, 49, 54, 64, 47, 57, 73]"
1713890819394826792,"[59, 59, 78, 73, 69, 92, 88, 38, 0, -4, 7, 11, -7, 9, 57, 47, -23, -54, 61, 464, 1071, 1321, 687, -190, -223, 99, 7, -111, -66, -66, -78, -64, -49, -42, -30, -7, 16, 30, 35, 47, 71, 83, 97, 138, 154, 176, 259, 285, 252, 283, 311, 276, 242, 209, 128, 23, -35, -45, -47, -54, -49, -38, -38, -38, -26, -9, -2, 0, 9, 11, 19, 35, 38]"
1713890819955874791,"[7, -9, 4, 14, 28, 47, 35, 33, 52, 47, 40, 40, 19, 4, 16, 30, 38, 38, 38, 52, 64, 64, 71, 78, 78, 88, 95, 95, 114, 138, 140, 140, 121, 80, 76, 92, 88, 88, 97, 107, 111, 88, 11, 23, 426, 1218, 1742, 1175, -9, -304, 95, 26, -171, -49, 0, -69, -33, 23, 9, 2, 38, 54, 52, 71, 88, 85, 80, 92, 123, 169, 216, 257, 288]"
1713890820516932960,"[318, 345, 349, 333, 292, 216, 130, 66, 16, -35, -61, -57, -59, -59, -40, -30, -30, -11, 0, -4, 9, 28, 30, 40, 45, 35, 45, 66, 64, 64, 78, 78, 73, 76, 85, 92, 90, 88, 88, 90, 97, 107, 99, 99, 104, 107, 116, 119, 111, 107, 107, 114, 121, 128, 126, 111, 107, 102, 78, 64, 73, 71, 52, 61, 78, 78, 76, 73, 57, 59, 95, 80, 11]"
1713890821078001303,"[28, 90, 88, 104, 152, 80, -16, 11, 45, 23, 33, 61, 52, 33, 35, 26, -19, 2, 390, 1223, 1816, 1221, -30, -307, 128, 59, -149, -45, 14, -16, 16, 26, 35, 85, 104, 90, 80, 80, 92, 119, 157, 178, 176, 183, 216, 254, 280, 283, 268, 273, 290, 261, 185, 126, 104, 59, -9, -26, -4, -16, -35, -23, 0, 14, 40, 35, -21, -26, 33, 33, 0, 21, 30]"
1713890821639069646,"[0, 2, 4, -28, -21, 7, -9, -26, -7, 0, 4, 19, -19, -49, -11, -2, -33, -23, 0, 23, 21, -23, -33, -7, 2, 35, 78, 76, 42, 21, 23, 40, 69, 80, 76, 52, 28, 35, 42, 35, 23, 30, 80, 69, -2, 2, 16, -19, 2, 59, 47, 4, 9, 38, 52, 30, 7, 11, 35, 61, 73, 88, 123, 104, 28, 4, 49, 52, 2, 42, 109, 57, -19]"
1713890822200107471,"[-19, 76, 407, 923, 1090, 504, -164, -142, 35, -114, -173, -66, -59, -109, -107, -92, -102, -111, -80, -9, 7, -26, -28, -7, 7, 19, 19, 26, 71, 126, 142, 140, 152, 164, 157, 145, 104, 35, -16, -49, -73, -76, -80, -83, -59, -52, -61, -33, -19, -49, -42, -9, -4, -14, -16, -9, 16, 28, 23, 33, 35, 21, 16, 21, 23, 21, 30, 40, 42, 45, 40, 42, 66]"
1713890822761175818,"[52, 23, 45, 61, 28, 16, 30, 33, 47, 54, 38, 45, 64, 66, 69, 64, 47, 35, 40, 54, 40, 2, 4, 33, 40, 42, 30, -2, -30, -42, -38, -30, -40, -40, -30, -19, -30, -83, -61, 228, 752, 1068, 673, -35, -169, 30, -33, -111, -40, -28, -57, -28, -19, -35, -19, 2, 2, 11, 28, 42, 54, 71, 85, 95, 114, 149, 180, 195, 211, 230, 245, 245, 223]"
1713890823322244161,"[178, 126, 78, 38, 11, -2, -9, -16, -30, -11, 9, -16, -40, -30, -30, -38, -19, -2, -11, -11, 0, -9, -23, -9, -2, -14, -7, 14, 9, 11, 38, 38, 21, 30, 45, 35, 33, 42, 54, 59, 49, 35, 26, 33, 35, 28, 19, 9, 2, 11, 19, 23, 38, 26, -2, 2, 2, -9, 7, 21, 2, -7, -9, -40, 42, 449, 1011, 1111, 461, -152, -88, 52, -64]"
1713890823883281986,"[-73, 0, -30, -61, -30, -21, -23, -11, -2, 14, 30, 28, 26, 28, 14, 9, 35, 66, 88, 116, 142, 161, 183, 199, 188, 159, 123, 73, 26, 4, -14, -35, -35, -26, -21, -28, -23, -14, -7, 0, 4, 9, 23, 30, 33, 40, 49, 52, 52, 54, 59, 57, 64, 78, 73, 73, 76, 66, 76, 104, 95, 71, 90, 104, 83, 61, 49, 38, 35, 42, 59, 85, 88]"
1713890824444350329,"[47, 19, 23, 19, 9, 11, 2, -42, -71, -57, -69, -119, -19, 428, 1044, 1142, 411, -221, -114, 11, -130, -121, -40, -69, -78, -40, -45, -54, -4, 33, 7, -7, 23, 42, 42, 52, 71, 97, 123, 145, 176, 204, 211, 214, 228, 223, 192, 142, 90, 49, 30, 14, 4, 0, -14, -11, 7, 2, -14, -2, 11, 11, 26, 40, 38, 33, 30, 45, 61, 57, 57, 54, 38]"
1713890825005418672,"[30, 21, 14, 28, 23, -7, -9, 4, 19, 38, 40, 28, 35, 47, 45, 40, 33, 30, 57, 85, 83, 64, 45, 26, 23, 19, 4, -2, 0, 7, -2, -38, -64, 57, 476, 1016, 1068, 380, -183, -66, 38, -109, -97, -11, -28, -38, -19, -21, -21, -2, 9, 11, 14, 14, 26, 57, 78, 83, 88, 104, 142, 176, 185, 199, 214, 202, 161, 126, 102, 52, 2, -19, -26]"
1713890825566456497,"[-21, -21, -23, -21, -19, -11, 0, -4, -7, 11, 19, 14, 21, 26, 7, 0, 19, 33, 38, 45, 42, 42, 47, 52, 49, 49, 57, 59, 61, 69, 69, 73, 90, 78, 66, 85, 92, 80, 83, 80, 54, 61, 90, 83, 66, 76, 76, 71, 80, 85, 83, 88, 90, 90, 90, 85, 88, 92, 78, 59, 45, 38, 54, 88, 99, 85, 73, 78, 76, 61, 59, 54, 30]"
1713890826127524844,"[14, 11, 0, -35, -90, -21, 366, 923, 1035, 402, -211, -145, 11, -102, -123, -54, -66, -71, -30, -16, -23, -14, 0, 7, 14, 26, 38, 52, 69, 80, 85, 95, 121, 145, 159, 171, 188, 199, 197, 188, 159, 119, 85, 52, 21, 4, -14, -14, 14, 9, -7, 4, -7, -23, -4, 19, 19, 9, 9, 19, 35, 40, 28, 26, 38, 35, 35, 54, 54, 35, 42, 61, 61]"
1713890826688593187,"[64, 69, 59, 54, 71, 78, 73, 71, 54, 40, 49, 57, 59, 71, 71, 66, 69, 66, 71, 83, 73, 59, 52, 57, 78, 99, 102, 95, 85, 78, 76, 71, 73, 78, 83, 90, 85, 66, 35, 19, 185, 645, 1090, 947, 218, -190, -9, 52, -90, -83, -33, -45, -38, -23, -35, -45, -42, -23, -9, -19, -14, 0, 7, 16, 38, 66, 85, 97, 130, 152, 152, 169, 178]"
1713890827249661530,"[157, 133, 109, 61, 21, 7, -4, -28, -40, -28, -14, -26, -54, -59, -40, -28, -23, -14, -9, -2, 7, 11, 16, 19, 19, 35, 52, 52, 52, 49, 40, 47, 64, 57, 54, 64, 59, 33, 23, 40, 49, 38, 38, 45, 45, 35, 35, 49, 54, 57, 66, 71, 66, 61, 73, 80, 71, 66, 78, 85, 83, 83, 88, 90, 85, 83, 88, 88, 88, 88, 92, 119, 140]"
1713890827810729873,"[128, 109, 99, 88, 76, 66, 66, 73, 61, 33, 40, 26, -23, 116, 561, 1006, 952, 299, -183, -54, 33, -114, -109, -47, -76, -78, -47, -47, -45, -33, -40, -52, -42, -21, -4, -2, -7, 4, 28, 49, 76, 102, 121, 138, 152, 159, 166, 157, 121, 78, 45, 28, 11, -11, -26, -28, -26, -16, 0, 2, 2, 14, 21, 23, 40, 52, 47, 38, 35, 38, 47, 49, 47]"
1713890828371767698,"[47, 54, 64, 71, 66, 52, 33, 30, 45, 52, 47, 42, 42, 45, 57, 69, 64, 54, 61, 66, 73, 80, 66, 30, 14, 33, 47, 38, 26, 19, 23, 35, 30, 42, 66, 71, 80, 90, 66, 35, 28, 26, 28, 38, 42, 35, 19, -16, -73, -28, 311, 833, 1040, 549, -111, -161, 40, -49, -126, -57, -45, -57, -28, -9, -9, -9, -2, 9, 14, 19, 28, 42, 57]"
1713890828932836041,"[76, 104, 135, 149, 173, 216, 238, 235, 238, 209, 161, 130, 85, 14, -30, -61, -116, -147, -142, -140, -130, -128, -128, -99, -80, -78, -61, -49, -54, -42, -19, -14, -16, -9, -2, 4, 19, 21, 14, 21, 35, 33, 33, 33, 26, 26, 33, 33, 45, 61, 69, 66, 54, 40, 33, 38, 40, 28, 30, 40, 42, 28, 7, -42, -42, 238, 790, 1137, 752, -19, -233, -4, -40]"
1713890829493873870,"[-154, -88, -61, -102, -80, -57, -69, -80, -92, -111, -104, -76, -54, -47, -30, -7, 21, 54, 88, 130, 169, 185, 202, 211, 197, 166, 99, 21, -26, -47, -71, -88, -83, -83, -78, -66, -64, -59, -47, -40, -35, -33, -28, -14, 0, 9, 14, 23, 38, 49, 57, 57, 66, 76, 71, 71, 80, 88, 88, 88, 90, 88, 88, 92, 92, 85, 88, 95, 107, 128, 142, 133, 111]"
1713890830054942213,"[83, 40, 16, 21, 30, 35, 45, 38, 26, -19, -102, -21, 454, 1154, 1368, 623, -204, -188, 16, -133, -178, -80, -95, -114, -64, -42, -49, -35, -19, -9, 2, 9, 7, 9, 28, 57, 80, 102, 123, 152, 192, 228, 247, 247, 223, 183, 130, 76, 28, 0, -21, -33, -23, -16, -11, -9, -11, -7, 11, 26, 30, 33, 28, 26, 26, 28, 30, 16, -14, -11, 16, 28, 33]"
1713890830616010556,"[33, 28, 30, 45, 57, 61, 57, 49, 57, 69, 71, 73, 64, 42, 42, 57, 64, 66, 71, 69, 69, 78, 80, 73, 57, 54, 64, 69, 69, 73, 76, 76, 78, 80, 88, 88, 78, 85, 95, 92, 95, 102, 99, 95, 104, 109, 107, 107, 104, 95, 97, 107, 97, 78, 73, 61, 47, 52, 64, 40, -4, -11, 0, 0, 0, 0, -2, -2, 4, 14, 16, 16, 11]"
1713890831177048381,"[7, 26, 64, 83, 76, 59, 54, 49, 49, 45, 28, 26, 38, 42, 23, -35, -92, 99, 728, 1421, 1342, 385, -242, -49, 47, -119, -92, -16, -52, -52, -9, -4, 0, 16, 23, 30, 40, 52, 66, 76, 85, 99, 114, 140, 171, 190, 202, 214, 226, 238, 238, 211, 154, 92, 66, 47, 11, -11, -19, -23, -21, -11, -9, -7, 7, 19, 23, 28, 40, 52, 57, 52, 57]"
1713890831738116724,"[66, 64, 61, 71, 71, 57, 38, 28, 30, 47, 54, 49, 49, 49, 40, 33, 38, 40, 47, 59, 54, 38, 33, 28, 14, 19, 33, 35, 35, 33, 30, 30, 35, 45, 45, 40, 38, 33, 28, 30, 38, 40, 40, 40, 42, 33, 14, 11, 21, 28, 45, 54, 54, 52, 54, 61, 69, 71, 76, 73, 69, 78, 88, 90, 92, 88, 85, 95, 102, 92, 76, 71, 71]"
1713890832299185067,"[73, 76, 88, 107, 102, 88, 83, 80, 73, 76, 80, 76, 76, 88, 95, 90, 54, -4, 49, 435, 1085, 1392, 790, -45, -111, 114, 4, -64, 7, -14, -42, 2, 23, 14, 16, 28, 42, 52, 40, 21, 28, 54, 76, 97, 119, 133, 145, 173, 209, 230, 238, 230, 211, 190, 159, 109, 64, 26, -4, -21, -40, -66, -64, -52, -54, -49, -38, -38, -45, -57, -59, -47, -35]"
1713890832860253414,"[-33, -30, -30, -33, -21, -2, -2, -23, -38, -28, -9, -4, 0, 4, -2, -9, 4, 21, 30, 23, 4, 9, 30, 33, 30, 33, 30, 40, 49, 52, 45, 23, 21, 30, 30, 40, 47, 42, 40, 49, 57, 59, 64, 69, 61, 64, 78, 85, 83, 80, 83, 73, 69, 71, 64, 61, 71, 76, 80, 88, 85, 83, 80, 78, 78, 92, 111, 130, 138, 121, 104, 95, 88]"
1713890833421321757,"[90, 95, 97, 99, 99, 95, 83, 38, 30, 314, 897, 1290, 916, 95, -159, 66, 16, -123, -49, -4, -45, -21, 9, -28, -52, -26, -11, -11, -4, 2, 4, 7, 14, 23, 28, 47, 80, 109, 130, 147, 157, 157, 159, 145, 95, 35, -14, -40, -45, -54, -69, -78, -76, -54, -38, -40, -35, -16, -11, -16, -4, 14, 16, 11, 9, 23, 40, 40, 40, 45, 45, 59, 69]"
1713890833982390100,"[57, 49, 54, 49, 49, 54, 71, 71, 19, -19, 11, 42, 40, 16, 9, 42, 9, -14, 59, 69, 16, 33, 54, 28, 28, 49, 47, 47, 76, 88, 61, 57, 66, 64, 57, 47, 49, 54, 59, 52, 38, 64, 69, 23, 14, 33, 33, 28, 28, 7, -9, -2, 23, 59, 76, 59, 28, 21, 35, 40, 30, 16, 19, -4, -35, 130, 597, 1059, 959, 259, -157, 16, 54]"
1713890834543427925,"[-104, -52, 35, -14, -30, 9, 9, 0, 14, 23, -7, -47, -23, 40, 61, 52, 54, 52, 61, 99, 138, 161, 195, 218, 204, 188, 178, 138, 76, 26, -7, -21, -30, -42, -59, -54, -23, -11, -28, -14, 16, 16, 0, -4, 16, 38, 26, 42, 69, 59, 69, 88, 76, 64, 66, 69, 73, 59, 26, 11, 30, 45, 35, 30, 35, 19, 2, 11, 14, -7, -2, 16, 7]"
1713890835104496268,"[2, 14, -7, -26, -16, -11, -14, -11, -4, 11, -4, -28, -4, 4, 7, 52, 66, 33, 28, 33, 16, 11, 16, 16, 30, 54, 59, 35, 2, -14, 116, 564, 1140, 1202, 476, -142, -33, 95, -59, -66, 19, -2, -11, 23, 23, 23, 40, 38, 30, 40, 52, 66, 71, 76, 116, 142, 133, 157, 195, 209, 233, 257, 264, 266, 247, 204, 138, 66, 9, -23, -33, -42, -52]"
1713890835665534093,"[-47, -35, -26, -23, -26, -26, -26, -40, -47, -30, -16, -16, -11, 2, 14, 19, 19, 19, 26, 45, 52, 64, 78, 61, 49, 66, 71, 64, 64, 66, 71, 80, 78, 76, 80, 80, 80, 88, 90, 76, 57, 64, 83, 85, 73, 61, 52, 59, 66, 71, 88, 107, 102, 97, 99, 80, 69, 80, 76, 61, 69, 64, 35, 30, 7, -59, 30, 478, 1078, 1197, 492, -199, -152]"
1713890836226602440,"[-2, -142, -161, -80, -99, -111, -69, -59, -80, -90, -71, -52, -35, -7, -2, -14, 7, 38, 52, 71, 92, 109, 142, 183, 192, 195, 195, 183, 166, 119, 52, 0, -33, -52, -52, -42, -35, -35, -35, -28, -14, 0, 16, 16, 4, 11, 26, 40, 45, 47, 45, 45, 52, 45, 21, 16, 26, 26, 30, 40, 45, 47, 38, 28, 49, 71, 59, 49, 57, 61, 61, 66, 76]"
1713890836787670783,"[76, 71, 73, 78, 80, 78, 78, 85, 88, 83, 88, 90, 73, 64, 71, 69, 71, 78, 78, 78, 80, 71, 59, 61, 71, 73, 66, 71, 73, 69, 73, 78, 76, 80, 90, 88, 80, 85, 88, 90, 85, 78, 78, 99, 121, 130, 116, 80, 54, 52, 59, 71, 76, 69, 57, 54, 38, -11, 19, 354, 973, 1325, 818, -16, -145, 78, -26, -119, -35, -33, -71, -38, -23]"
1713890837348739126,"[-40, -30, -28, -42, -33, -16, -14, -14, -7, -4, 0, 26, 49, 47, 61, 97, 114, 126, 142, 142, 121, 90, 49, 14, -21, -47, -54, -47, -40, -30, -30, -28, -23, -28, -21, 7, 16, 14, 4, -21, -16, 19, 16, 4, 7, -4, -2, 30, 45, 23, 30, 73, 66, 21, 26, 47, 38, 47, 76, 78, 76, 80, 73, 76, 83, 83, 83, 80, 78, 85, 92, 92, 92]"
1713890837909776951,"[92, 90, 92, 92, 85, 71, 47, 30, 49, 66, 66, 59, 52, 54, 66, 73, 83, 80, 66, 69, 76, 76, 78, 78, 71, 90, 123, 123, 119, 111, 85, 66, 59, 47, 49, 52, 33, 38, 45, 4, 4, 257, 780, 1168, 856, 92, -157, 49, 19, -92, -19, 26, -2, 9, 33, 26, 16, 26, 40, 40, 38, 42, 49, 52, 52, 47, 52, 64, 71, 88, 121, 142, 149]"
1713890838470845294,"[154, 152, 135, 102, 49, 0, -28, -42, -54, -80, -104, -97, -83, -66, -47, -57, -57, -30, -21, -16, -2, 0, 2, 11, 4, -21, -26, -14, -19, -16, -2, 2, 9, 19, 21, 21, 28, 38, 38, 40, 49, 52, 57, 66, 66, 64, 64, 66, 73, 78, 69, 66, 78, 78, 83, 97, 88, 78, 78, 61, 57, 69, 76, 69, 69, 73, 71, 71, 73, 80, 85, 78, 73]"
1713890839031913637,"[78, 85, 80, 73, 88, 111, 109, 85, 76, 73, 57, 49, 61, 64, 64, 66, 66, 54, 7, -49, 30, 385, 904, 1097, 566, -102, -111, 78, -35, -92, -7, -4, -26, 0, 11, 11, 26, 30, 35, 38, 33, 30, 40, 52, 69, 78, 78, 85, 102, 111, 119, 130, 145, 140, 128, 121, 95, 35, -14, -35, -54, -69, -73, -73, -69, -66, -59, -42, -28, -23, -26, -28, -14]"
1713890839592981984,"[2, 9, 7, -2, -16, -14, 4, 9, 2, -11, -33, -42, -28, -4, 2, -4, -7, 0, 9, 21, 26, 21, 21, 33, 38, 40, 49, 47, 40, 49, 61, 64, 57, 59, 69, 69, 57, 71, 99, 107, 99, 88, 64, 52, 54, 47, 45, 59, 64, 64, 73, 57, 11, 38, 309, 814, 1116, 735, 33, -126, 85, 40, -69, -11, 21, -4, 11, 38, 30, 26, 38, 49, 57]"
1713890840154029983,"[52, 40, 38, 30, 26, 45, 76, 92, 111, 152, 180, 180, 178, 166, 130, 92, 47, -14, -76, -130, -159, -154, -145, -140, -138, -138, -126, -107, -95, -88, -78, -83, -85, -76, -57, -45, -40, -30, -14, -7, -2, 7, 9, 7, 16, 26, 33, 38, 40, 40, 40, 40, 47, 57, 54, 45, 45, 76, 107, 111, 95, 78, 71, 71, 61, 45, 42, 49, 38, 21, 21, -4, -52]"
1713890840715088152,"[64, 528, 1109, 1154, 430, -171, -54, 76, -66, -66, -7, -49, -52, -9, -7, 2, 28, 30, 28, 40, 64, 76, 71, 66, 80, 114, 145, 166, 192, 228, 252, 259, 264, 257, 221, 169, 109, 45, 7, -11, -38, -49, -42, -45, -47, -38, -35, -38, -47, -59, -52, -35, -35, -30, -21, -38, -49, -40, -28, -23, -33, -57, -61, -42, -28, -21, -16, -11, -7, -2, -2, 4, 21]"
1713890841276156495,"[35, 33, 30, 40, 49, 47, 40, 26, 9, 14, 42, 76, 95, 90, 66, 40, 40, 54, 57, 49, 49, 61, 73, 71, 33, -16, 95, 561, 1168, 1252, 518, -142, -49, 107, -35, -54, 19, -4, -11, 30, 40, 35, 40, 45, 57, 69, 64, 59, 69, 80, 95, 119, 147, 164, 159, 171, 211, 238, 240, 235, 204, 154, 102, 59, 28, 0, -21, -21, -14, -7, -2, -2, -9]"
1713890841837224838,"[2, 21, 28, 30, 30, 21, 21, 30, 40, 42, 28, 4, 9, 28, 30, 35, 40, 33, 38, 52, 54, 52, 52, 52, 57, 64, 69, 69, 61, 57, 64, 66, 64, 76, 90, 90, 80, 57, 30, 21, 14, 0, -2, 2, 7, 11, -7, -73, -123, 35, 542, 1137, 1130, 333, -247, -85, 30, -126, -119, -38, -61, -57, -11, -7, -19, -4, 14, 30, 45, 47, 42, 54, 76]"
1713890842398293181,"[95, 111, 130, 157, 185, 216, 240, 240, 228, 216, 188, 135, 90, 49, 14, -7, -16, -19, -11, 0, 0, 2, 11, 21, 28, 28, 33, 40, 30, 19, 30, 40, 38, 40, 45, 49, 54, 54, 49, 30, 9, 19, 35, 33, 33, 45, 45, 45, 59, 64, 61, 66, 66, 69, 73, 73, 78, 78, 73, 80, 80, 66, 69, 83, 80, 76, 80, 83, 85, 90, 90, 85, 80]"
1713890842959361528,"[85, 95, 92, 88, 80, 61, 52, 61, 64, 57, 64, 69, 69, 73, 69, 57, 54, 59, 61, 57, 38, 21, 19, 16, 7, -2, 4, 14, 11, 4, 9, 0, -26, -30, -19, -16, -11, 0, 2, 2, 2, 9, 19, 28, 35, 28, 19, 23, 40, 69, 88, 71, 47, 49, 52, 45, 47, 47, 47, 57, 66, 64, 35, -23, 45, 466, 1104, 1335, 702, -90, -123, 88, -28]"
1713890843520399353,"[-85, -2, -19, -38, 14, 26, 7, 11, 4, -9, 0, 9, 14, 21, 26, 42, 66, 92, 121, 140, 157, 183, 209, 216, 204, 178, 149, 119, 76, 30, 0, -28, -59, -61, -54, -49, -40, -40, -42, -33, -14, -9, -14, -28, -33, -16, -7, -4, 7, 9, 4, 14, 23, 23, 28, 28, 26, 33, 38, 42, 52, 47, 38, 45, 52, 54, 54, 45, 28, 33, 47, 47, 42]"
1713890844081467696,"[38, 19, -4, -7, -7, -14, -14, -9, -7, -2, -2, -19, -35, -35, -23, 2, 26, 14, -4, -7, -9, -11, -4, -2, -4, 2, 16, 28, 28, 0, -54, 14, 435, 1078, 1297, 654, -123, -152, 54, -57, -116, -30, -30, -54, -19, 2, -4, 7, 26, 30, 45, 64, 69, 73, 92, 107, 121, 149, 173, 197, 230, 259, 278, 288, 283, 259, 202, 130, 78, 40, 4, -14, -23]"
1713890844642536039,"[-30, -23, -19, -21, -11, 2, 2, 7, 19, 4, -21, -14, 7, 14, 11, 19, 35, 40, 38, 38, 28, 16, 33, 45, 28, 16, 16, 11, 11, 19, 21, 21, 23, 26, 21, 14, 7, -2, -2, 9, 14, 14, 14, 16, 19, 23, 30, 30, 30, 30, 33, 42, 49, 49, 49, 49, 45, 38, 38, 42, 45, 42, 42, 49, 57, 73, 95, 107, 102, 90, 85, 83, 73]"
1713890845203573864,"[71, 66, 47, 40, 49, 35, -19, -69, 45, 516, 1173, 1316, 568, -161, -90, 80, -88, -128, -33, -40, -54, -14, 0, -9, 7, 23, 33, 47, 59, 57, 64, 88, 104, 126, 147, 157, 178, 216, 245, 261, 271, 266, 252, 228, 183, 126, 73, 19, -28, -40, -30, -30, -35, -38, -40, -40, -38, -40, -42, -42, -35, -23, -14, -7, -7, -11, -7, -14, -33, -30, -21, -23, -16]"
1713890845764642207,"[-2, 7, 9, 7, 9, 19, 23, 14, -2, -16, -21, -2, 11, 11, 16, 21, 21, 30, 42, 47, 49, 49, 49, 59, 66, 71, 73, 71, 69, 76, 85, 85, 80, 80, 83, 88, 92, 99, 99, 85, 73, 80, 95, 95, 88, 85, 90, 95, 99, 102, 102, 99, 97, 97, 97, 99, 121, 142, 142, 128, 107, 66, 47, 64, 69, 66, 73, 76, 69, 54, 0, 11, 361]"
1713890846325710554,"[1021, 1368, 814, -52, -178, 52, -69, -185, -95, -88, -133, -99, -76, -85, -69, -52, -45, -30, -21, -9, 2, 14, 30, 49, 64, 85, 114, 140, 171, 197, 199, 197, 202, 183, 142, 97, 52, 19, -2, -16, -19, -21, -26, -14, -2, 0, 4, 11, 19, 26, 33, 35, 40, 35, 16, 16, 30, 33, 28, 35, 45, 49, 38, 26, 28, 35, 40, 49, 54, 49, 52, 59, 61]"
1713890846886778897,"[69, 76, 69, 66, 73, 80, 80, 80, 73, 57, 47, 49, 61, 64, 52, 47, 59, 64, 66, 76, 73, 57, 42, 38, 40, 42, 38, 35, 45, 47, 35, 28, 19, 0, 4, 16, 16, 16, 14, 7, 11, 26, 28, 21, 11, -7, -21, -4, 28, 40, 21, 9, 7, -2, -11, -9, -11, -7, 9, 16, 7, -38, -45, 228, 818, 1237, 890, 71, -192, 38, 9, -111, -33]"
1713890847447847240,"[9, -40, -26, 11, 11, 19, 33, 23, 30, 57, 71, 78, 83, 80, 95, 130, 152, 164, 173, 183, 209, 238, 245, 238, 214, 169, 121, 78, 45, 16, -14, -23, -19, -19, -11, 0, -2, -4, 0, -14, -26, -16, -7, -9, -9, -7, 0, 9, 9, 14, 26, 35, 42, 47, 40, 40, 49, 61, 61, 57, 57, 61, 69, 73, 73, 71, 69, 69, 71, 78, 83, 78, 71]"
1713890848008885065,"[73, 83, 85, 80, 71, 73, 76, 71, 76, 64, 35, 30, 45, 52, 59, 61, 57, 59, 61, 66, 76, 76, 71, 76, 73, 71, 71, 73, 83, 102, 114, 99, 57, 28, 33, 28, 9, 11, 21, 9, 4, 0, -54, -49, 285, 966, 1406, 916, -47, -285, -11, -76, -207, -114, -85, -130, -99, -69, -76, -64, -47, -40, -33, -19, -9, 11, 33, 33, 35, 80, 104, 97, 152]"
1713890848569953408,"[209, 207, 223, 211, 126, 135, 226, 190, 30, -61, -45, -26, -59, -71, -26, 2, 9, 33, 57, 83, 135, 192, 223, 245, 254, 221, 185, 159, 126, 83, 52, 42, 40, 33, 26, 35, 47, 23, -11, -7, 14, 23, 26, 14, 4, 16, 26, 16, 4, 19, 42, 33, 16, 26, 40, 33, 16, 28, 40, 11, 0, 23, 38, 40, 38, 28, 28, 47, 54, 47, 61, 80, 97]"
1713890849131021751,"[130, 138, 57, 7, 66, 97, 78, 83, 83, 59, 49, 49, 40, 28, 30, 30, 11, -38, -126, -61, 354, 930, 1109, 533, -176, -192, 21, -85, -161, -71, -47, -71, -45, -21, -38, -23, 9, 19, 28, 40, 40, 52, 69, 85, 102, 114, 130, 166, 202, 216, 209, 211, 226, 226, 204, 171, 121, 66, 28, 2, -9, -11, -21, -4, 33, 42, 61, 61, -26, -45, 21, 30, 26]"
1713890849692090098,"[59, 83, 80, 78, 85, 88, 83, 71, 47, 21, 9, 19, 38, 42, 40, 35, 42, 54, 57, 57, 54, 49, 52, 69, 78, 64, 64, 71, 71, 71, 76, 76, 80, 76, 73, 80, 83, 76, 73, 76, 92, 109, 92, 61, 47, 40, 38, 45, 47, 47, 47, 47, 47, 42, 7, 40, 328, 797, 1002, 568, -71, -145, 47, -35, -119, -57, -57, -80, -54, -40, -38, -9, 11]"
1713890850253158441,"[-11, -38, -9, -4, -47, -21, 57, 80, 61, 61, 92, 109, 114, 159, 211, 218, 202, 185, 140, 69, 9, 0, 11, 9, 14, 23, 26, 35, 47, 52, 59, 57, 26, 16, 28, 23, 33, 49, 47, 45, 52, 54, 64, 66, 61, 61, 64, 69, 71, 71, 64, 61, 69, 73, 80, 88, 80, 80, 85, 92, 92, 85, 92, 97, 83, 76, 85, 92, 76, 45, 45, 64, 54]"
1713890850814196266,"[54, 85, 104, 107, 107, 99, 78, 52, 33, 47, 64, 59, 54, 57, 49, 33, 19, 123, 523, 1064, 1252, 690, -61, -164, -4, -52, -45, 14, -21, -16, 38, 28, 4, 21, 40, 47, 49, 57, 71, 90, 97, 107, 119, 130, 157, 173, 171, 197, 230, 226, 226, 228, 188, 123, 66, 7, -45, -57, -54, -61, -66, -71, -88, -97, -83, -64, -69, -76, -64, -52, -40, -19, -11]"
1713890851375264609,"[-14, -2, 9, 9, 9, 9, 16, 23, 19, 9, 2, -4, -4, 2, -2, -9, -4, -2, -11, -4, 11, 19, 16, 16, 21, 28, 38, 33, 30, 40, 42, 35, 40, 49, 47, 40, 35, 40, 57, 73, 80, 90, 92, 83, 69, 59, 45, 35, 38, 42, 52, 57, 52, 33, -19, 11, 357, 895, 1078, 566, -114, -185, 28, -42, -116, -40, -28, -57, -33, -9, -4, 4, 11]"
1713890851936332952,"[21, 33, 42, 57, 66, 57, 61, 83, 85, 92, 126, 157, 188, 214, 218, 216, 216, 185, 128, 73, 28, -7, -30, -40, -35, -33, -40, -33, -19, -19, -11, 0, 0, 7, 16, 19, 16, 4, -11, 0, 26, 30, 26, 21, 16, 14, 7, -16, -45, -52, -38, -26, -28, -26, -16, -14, -11, -2, 7, 9, 9, 14, 23, 33, 38, 35, 33, 35, 35, 30, 26, 23, 23]"
1713890852497401295,"[33, 52, 61, 54, 49, 42, 30, 35, 45, 45, 40, 23, 16, 30, 38, 35, 38, 42, 54, 80, 107, 109, 92, 76, 69, 73, 80, 73, 49, 47, 80, 97, 59, -2, 49, 442, 1097, 1382, 776, -54, -135, 59, -64, -119, -11, -16, -57, -19, 7, 0, 16, 35, 30, 35, 59, 66, 66, 90, 104, 104, 111, 126, 154, 178, 195, 216, 242, 252, 249, 221, 166, 116, 85]"
1713890853058444211,"[54, 21, -4, -19, -11, -7, -7, -2, -9, -28, -14, 11, 11, 9, 11, 9, 21, 30, 21, 9, -7, -16, 0, 23, 14, -2, -2, -16, -28, -11, 2, -2, -7, -11, -28, -38, -23, -14, -23, -16, 2, 9, 11, 16, 16, 16, 23, 38, 45, 42, 38, 30, 23, 30, 42, 40, 40, 47, 54, 61, 61, 59, 59, 69, 80, 88, 88, 83, 78, 78, 88, 97, 97]"
1713890853619507467,"[97, 97, 92, 97, 107, 107, 99, 99, 99, 99, 90, 61, 45, 59, 69, 66, 66, 71, 73, 73, 73, 80, 90, 85, 88, 114, 114, 83, 69, 69, 59, 52, 61, 69, 69, 73, 80, 76, 45, 9, 130, 585, 1168, 1247, 518, -157, -73, 85, -64, -83, 2, -14, -35, -2, 16, 14, 21, 35, 42, 47, 66, 76, 76, 85, 95, 104, 121, 133, 147, 173, 202, 214, 223]"
1713890854180575810,"[218, 192, 154, 107, 57, 16, -21, -54, -80, -104, -107, -90, -88, -90, -73, -59, -54, -45, -33, -38, -59, -66, -49, -33, -19, -11, -9, -7, 0, 14, 26, 23, 19, 21, 23, 28, 33, 30, 33, 38, 45, 57, 59, 52, 49, 61, 73, 73, 73, 71, 66, 73, 85, 80, 80, 85, 80, 80, 90, 97, 95, 83, 83, 95, 97, 92, 80, 64, 64, 78, 80, 80, 83]"
1713890854741644153,"[78, 73, 71, 80, 95, 85, 47, 35, 64, 73, 64, 66, 54, 26, 11, 19, 28, 23, 16, 47, 90, 97, 78, 57, 40, 28, 30, 40, 40, 28, 19, 16, -2, -38, 64, 487, 1023, 1094, 435, -204, -147, 9, -130, -152, -54, -64, -83, -57, -54, -57, -33, -14, -11, -9, -7, 9, 28, 33, 35, 47, 71, 104, 138, 173, 209, 223, 223, 238, 245, 218, 164, 92, 38]"
1713890855302681978,"[4, -23, -42, -54, -61, -61, -66, -80, -83, -90, -99, -85, -64, -52, -45, -35, -38, -42, -26, 0, 4, 2, 7, 14, 19, 30, 35, 35, 40, 47, 47, 52, 52, 52, 54, 52, 54, 64, 71, 71, 71, 73, 76, 83, 85, 85, 83, 76, 61, 57, 54, 54, 71, 88, 104, 202, 340, 288, 90, -2, -19, 11, 119, 64, -16, 135, 164, -116, -218, 235, 918, 1294, 954]"
1713890855863750321,"[69, -292, -40, -38, -92, 80, 149, 152, 214, 223, 176, 159, 157, 145, 147, 321, 504, 166, -223, 7, 238, 190, 280, 404, 361, 238, 209, 271, 299, 290, 273, 235, 183, 154, 169, 185, 33, -233, -252, -99, -73, -88, -64, -57, -64, -54, -49, -26, 88, 207, 57, -173, -97, 19, -28, -14, 11, -35, -23, 42, 76, 88, 102, 104, 102, 88, 76, 76, 59, 11, 7, 121, 311]"
1713890856424818668,"[216, -202, -216, 69, 40, -28, 88, 28, -138, -59, 57, 52, 88, 121, 95, 102, 109, 78, 52, 16, 0, 88, 216, 121, -138, -166, -30, -11, -40, 111, 490, 828, 690, 97, -233, -76, -26, -147, -126, -88, -121, -111, -83, -88, -85, -73, -54, -35, -23, -4, 16, 64, 223, 280, 64, 14, 142, 92, 83, 216, 249, 166, 102, 85, 80, 66, 47, 45, 57, 47, -16, -35, 47]"
1713890856985887011,"[154, 178, -59, -249, -111, -14, -28, 14, 38, 19, 21, 33, 16, -11, -9, 19, 30, 7, -11, 0, -9, -23, 28, 111, 135, 33, -95, -109, -26, 33, 38, 40, 52, 80, 71, -11, -16, 57, 71, 52, 59, 95, 116, 99, 71, 66, 95, 85, 66, 126, 121, -23, -90, -26, 0, -23, -11, 192, 666, 1018, 730, 54, -178, 35, 35, -92, -35, 11, -26, -14, 14, 19, 19]"
1713890857546955354,"[19, 26, 45, 57, 49, 54, 92, 121, 121, 138, 161, 133, 102, 211, 285, 128, 128, 311, 240, 80, 95, 38, -123, -133, -45, -30, -54, -97, -95, 7, 45, -9, 2, 16, -21, 88, 254, 149, -38, -9, 138, 116, 0, 116, 159, -54, -80, 47, 54, 21, 28, 35, 33, 54, 64, 19, 2, 52, 69, 45, 38, 52, 45, 42, 135, 192, 47, -73, 0, 71, 78, 107, 92]"
1713890858107993179,"[19, -4, 49, 54, -26, -16, 42, 2, -28, 4, -23, -26, 245, 761, 1109, 811, 64, -202, 97, 90, -178, -114, 7, -109, -133, -14, 23, 19, 21, -11, -11, 30, 49, 54, 76, 76, 38, 33, 88, 121, 138, 171, 176, 164, 185, 199, 169, 119, 64, 45, 73, 88, 49, -19, -83, -26, 71, 11, -76, -7, 52, 0, 28, 95, -2, -45, 69, 88, 59, 69, 52, 9, -2]"
1713890858669061522,"[64, 92, 104, 159, 111, 49, 90, 104, 99, 121, 83, 28, 42, 59, 35, 23, 19, 7, 9, 23, 42, 35, 0, -33, -59, -73, -73, -83, -102, -83, -11, -26, -102, -28, 21, -19, 178, 618, 971, 764, 88, -202, -21, -16, -121, -92, -83, -102, -64, 16, 54, 40, 38, 71, 90, 104, 161, 145, 28, -19, 52, 147, 202, 207, 204, 218, 216, 207, 199, 183, 157, 109, 52]"
1713890859230129865,"[9, -19, -45, -64, -78, -88, -85, -95, -116, -119, -104, -95, -90, -85, -73, -52, -47, -64, -66, -26, 4, -19, -42, -19, -26, -80, -64, -7, -38, -76, 7, 64, -45, -123, -30, 76, 61, -19, -38, 19, 57, 61, 69, 83, 90, 80, 57, 35, 45, 47, 23, 33, 47, 35, 38, 45, 33, -23, -30, 249, 802, 1161, 787, 0, -235, 2, -2, -99, -57, -71, -99, -49, -76]"
1713890859791198212,"[-116, -54, -16, -21, 4, -11, -78, -57, -14, -35, -16, 35, 45, 38, 38, 49, 64, 73, 73, 76, 57, 4, -47, -73, -85, -109, -135, -121, -102, -111, -85, -33, -28, -45, -40, -33, 23, 102, 28, -23, 33, -54, -83, 14, -14, -28, -9, -38, 19, 78, 49, 26, 49, 78, 88, 85, 78, 88, 114, 247, 361, 107, -90, 97, 199, 197, 223, 133, 64, 147, 128, 19, 92]"
1713890860352236037,"[147, 54, 45, 92, 114, 130, 92, 2, -40, -21, 88, 297, 454, 626, 887, 618, -92, -149, 180, 0, -252, -123, -16, -45, -2, 21, -9, 19, 76, 47, -16, 14, 49, 30, 49, 83, 90, 99, 123, 145, 171, 199, 188, 164, 190, 195, 145, 114, 85, 21, -26, -45, -64, -73, -66, -69, -73, -64, -47, -35, -38, -52, -49, -40, -42, -40, -38, -38, -33, -26, -19, -9, -4]"
1713890860913304380,"[-28, -61, -45, -19, -11, -14, -16, -21, -14, 2, 0, -28, -45, -33, -14, -7, -7, -7, -7, 2, 21, 30, 21, 9, 2, 19, 52, 66, 59, 54, 45, 26, 23, 40, 45, 45, 52, 52, 54, 52, 21, -2, 164, 637, 1128, 1035, 283, -188, -4, 78, -61, -35, 19, -19, -19, -9, -11, 16, 35, 30, 33, 45, 61, 76, 78, 80, 83, 80, 95, 130, 159, 183, 211]"
1713890861474372723,"[221, 221, 218, 188, 126, 66, 21, -14, -64, -107, -114, -109, -123, -135, -133, -126, -114, -102, -92, -88, -90, -78, -54, -42, -42, -35, -30, -26, -7, 2, -2, 4, 9, 9, 19, 23, 23, 35, 45, 45, 52, 54, 49, 57, 66, 57, 42, 42, 49, 42, 42, 61, 76, 71, 64, 66, 76, 80, 78, 69, 47, 33, 45, 57, 52, 47, 49, 54, 73, 99, 116, 116, 97]"
1713890862035435983,"[78, 73, 76, 80, 78, 52, 21, 33, 52, 38, -16, -16, 283, 930, 1409, 1021, 88, -216, 47, 23, -109, -26, 16, -35, -21, 21, 23, 30, 42, 40, 40, 47, 52, 64, 76, 73, 78, 85, 88, 111, 135, 142, 161, 185, 197, 195, 173, 123, 73, 40, 9, -28, -80, -107, -85, -73, -71, -54, -47, -54, -38, -11, 2, 9, 4, 7, 21, 28, 26, 21, 14, 19, 33]"
1713890862596478891,"[40, 49, 57, 52, 49, 59, 69, 76, 71, 49, 35, 47, 61, 66, 66, 61, 64, 78, 88, 88, 85, 88, 88, 95, 102, 107, 102, 95, 73, 66, 88, 95, 90, 95, 99, 99, 99, 111, 114, 104, 104, 114, 119, 119, 114, 95, 78, 88, 97, 90, 95, 99, 92, 97, 104, 97, 99, 109, 102, 85, 71, 64, 59, 57, 59, 64, 57, 45, 33, 28, 35, 45, 47]"
1713890863157547238,"[42, 35, 38, 49, 73, 80, 59, 47, 49, 42, 40, 45, 42, 47, 57, 59, 64, 49, -9, 21, 385, 1011, 1333, 792, -49, -157, 85, -14, -99, -2, 2, -33, 4, 23, 16, 35, 47, 33, 23, 30, 40, 47, 59, 83, 99, 111, 133, 157, 183, 218, 240, 228, 209, 226, 230, 190, 135, 97, 57, 33, 28, 11, -2, 9, 23, 21, 21, 35, 49, 42, 38, 49, 69]"
1713890863718615581,"[78, 78, 73, 73, 80, 92, 104, 99, 90, 92, 78, 54, 61, 80, 66, 26, 16, 30, 16, 0, 14, 26, 23, 33, 54, 30, -9, -16, -4, 19, 23, -14, -30, -7, 14, 30, 30, 16, 19, 38, 49, 59, 47, 11, 11, 45, 64, 61, 61, 66, 73, 78, 80, 95, 99, 92, 88, 102, 123, 116, 97, 83, 83, 114, 133, 104, 85, 114, 145, 142, 130, 126, 114]"
1713890864279653406,"[107, 107, 90, 80, 92, 104, 97, 80, 61, 33, 164, 609, 1083, 1042, 380, -135, -16, 107, -42, -69, 14, 11, 4, 19, -7, -23, 19, 42, 28, 38, 61, 57, 54, 66, 64, 61, 85, 109, 130, 157, 171, 159, 154, 173, 183, 157, 107, 61, 23, -4, -23, -33, -40, -40, -28, -30, -40, -21, -7, -14, -2, 11, 16, 30, 42, 42, 35, 23, 28, 52, 61, 54, 57]"
1713890864840721749,"[59, 64, 76, 80, 76, 69, 71, 83, 78, 66, 57, 64, 73, 71, 64, 69, 61, 35, 23, 38, 52, 57, 45, 30, 35, 40, 47, 52, 42, 49, 66, 66, 61, 61, 73, 80, 73, 83, 95, 78, 73, 85, 88, 95, 116, 130, 133, 130, 114, 97, 90, 97, 104, 99, 97, 102, 102, 80, 45, 30, 209, 661, 1056, 880, 192, -178, 0, 47, -95, -78, -23, -47, -47]"
1713890865401790092,"[-19, -23, -28, -4, 14, 14, 9, 0, 0, 4, -7, 0, 30, 52, 78, 107, 114, 128, 157, 176, 176, 171, 149, 97, 38, 2, -16, -33, -52, -59, -57, -52, -42, -33, -23, -21, -23, -16, -4, 11, 14, 7, 9, 23, 30, 33, 38, 26, 14, 26, 40, 40, 38, 33, 35, 45, 57, 61, 59, 54, 52, 59, 71, 76, 69, 57, 61, 78, 80, 76, 80, 88, 104]"
1713890865962858435,"[128, 128, 90, 38, 9, 7, 2, -2, 7, 16, 11, 14, 14, -14, 0, 257, 778, 1159, 835, 38, -221, 26, 2, -140, -76, -42, -85, -73, -49, -49, -30, -14, -9, -4, 0, 16, 38, 49, 54, 54, 66, 99, 133, 161, 192, 209, 216, 230, 230, 204, 161, 104, 45, 14, -2, -16, -23, -26, -28, -21, -11, -4, 0, 4, 14, 26, 35, 21, -4, -9, -2, -4, 4]"
