time,ecg
1713351363976973000,"[11167, 11702, 12196, 12665, 13096, 13509, 13918, 14279, 14599, 14929, 15210, 15464, 15747, 15982, 16183, 16392, 16576, 16748, 16925, 17057, 17181, 17320, 17434, 17502, 17561, 17627, 17693, 17754, 17825, 17853, 17789, 17770, 17820, 17808, 17763, 17766, 17749, 17688, 17662, 17627, 17551, 17514, 17476, 17386, 17311, 17229, 17111, 17026, 16944, 16830, 16739, 16647, 16524, 16432, 16355, 16218, 16069, 15999, 16110, 16409, 16555, 16138, 15285, 14866, 15099, 15080, 14727, 14616, 14588, 14406, 14255, 14161, 14008]"
1713351364538102379,"[13864, 13768, 13633, 13485, 13362, 13228, 13096, 12990, 12877, 12766, 12632, 12463, 12361, 12295, 12159, 12015, 11909, 11791, 11657, 11525, 11381, 11193, 10941, 10719, 10571, 10418, 10264, 10125, 9970, 9833, 9732, 9628, 9506, 9383, 9268, 9162, 9053, 8950, 8851, 8735, 8613, 8516, 8427, 8318, 8201, 8099, 7981, 7850, 7758, 7678, 7572, 7461, 7364, 7277, 7188, 7103, 7006, 6900, 6804, 6726, 6653, 6570, 6478, 6384, 6302, 6226, 6146, 6076, 5995, 5901, 5823, 5757, 5684]"
1713351365099231758,"[5614, 5541, 5451, 5383, 5324, 5244, 5171, 5086, 4978, 4916, 4879, 4810, 4754, 4704, 4624, 4551, 4497, 4424, 4349, 4287, 4233, 4184, 4134, 4082, 4031, 3972, 3917, 3875, 3837, 3870, 4139, 4516, 4563, 3979, 3237, 3227, 3559, 3420, 3222, 3293, 3277, 3178, 3159, 3138, 3081, 3055, 3036, 3001, 2966, 2930, 2897, 2876, 2860, 2838, 2813, 2791, 2789, 2789, 2780, 2758, 2732, 2711, 2690, 2652, 2596, 2509, 2400, 2294, 2198, 2106, 2040, 1997, 1960]"
1713351365660350967,"[1927, 1898, 1870, 1844, 1816, 1774, 1724, 1698, 1705, 1693, 1649, 1611, 1599, 1578, 1543, 1547, 1569, 1550, 1524, 1524, 1519, 1484, 1458, 1418, 1364, 1418, 1505, 1453, 1371, 1366, 1361, 1333, 1326, 1316, 1295, 1281, 1265, 1253, 1255, 1239, 1218, 1210, 1201, 1189, 1182, 1166, 1142, 1130, 1135, 1126, 1104, 1095, 1097, 1083, 1062, 1055, 1057, 1055, 1048, 1029, 984, 949, 942, 937, 925, 918, 909, 902, 895, 885, 878, 864, 862]"
1713351366221459998,"[1043, 1472, 1790, 1531, 758, 402, 760, 866, 633, 659, 751, 685, 669, 704, 697, 687, 697, 699, 697, 695, 699, 709, 718, 720, 725, 739, 758, 779, 798, 805, 819, 834, 838, 838, 817, 770, 697, 619, 553, 499, 452, 417, 400, 386, 376, 369, 365, 353, 343, 346, 346, 336, 332, 336, 334, 334, 343, 351, 353, 353, 355, 355, 358, 365, 348, 318, 318, 332, 336, 336, 339, 336, 334]"
1713351366782589377,"[339, 343, 348, 346, 327, 303, 308, 322, 325, 313, 292, 292, 306, 306, 308, 315, 306, 303, 313, 318, 320, 320, 310, 308, 318, 320, 322, 322, 310, 310, 322, 327, 325, 322, 327, 339, 348, 339, 325, 306, 289, 289, 280, 268, 278, 280, 270, 270, 282, 289, 393, 739, 1159, 1210, 612, -44, 75, 384, 212, 110, 245, 247, 193, 223, 237, 226, 245, 261, 261, 261, 268, 280, 296]"
1713351367343718760,"[303, 301, 303, 322, 351, 379, 407, 435, 452, 459, 471, 475, 452, 391, 301, 226, 179, 131, 87, 61, 44, 37, 44, 54, 58, 61, 61, 68, 82, 91, 94, 98, 96, 80, 68, 75, 77, 65, 63, 73, 75, 82, 91, 91, 87, 89, 96, 106, 110, 96, 73, 75, 91, 96, 96, 101, 103, 108, 117, 120, 120, 127, 136, 131, 127, 124, 117, 120, 131, 131, 136, 148, 148]"
1713351367904848139,"[141, 146, 150, 150, 155, 157, 157, 157, 157, 160, 155, 134, 129, 148, 148, 141, 153, 169, 179, 183, 164, 141, 141, 139, 124, 120, 127, 129, 129, 136, 141, 136, 167, 365, 775, 1083, 866, 139, -228, 117, 266, 47, 40, 117, 73, 70, 115, 115, 110, 129, 136, 143, 155, 169, 183, 186, 179, 186, 209, 237, 268, 294, 313, 332, 353, 369, 381, 372, 341, 282, 212, 153, 103]"
1713351368465977518,"[56, 23, 2, -11, -4, 9, 9, 0, -21, -35, -16, 2, 0, 0, 7, 2, 2, 21, 30, 21, 16, 25, 40, 40, 30, 21, 7, 2, 11, 23, 18, 9, 16, 25, 23, 2, -14, -11, -2, 7, 16, 30, 30, 21, 28, 49, 47, 35, 28, 25, 30, 40, 54, 63, 61, 56, 65, 77, 80, 82, 77, 73, 87, 103, 101, 103, 106, 103, 120, 141, 143, 124, 101]"
1713351369027096727,"[91, 96, 103, 108, 110, 106, 91, 91, 108, 108, 153, 400, 805, 1010, 619, -113, -259, 134, 157, -21, 56, 115, 61, 70, 103, 96, 103, 110, 84, 80, 106, 122, 129, 146, 164, 176, 195, 221, 235, 247, 278, 301, 313, 329, 339, 325, 289, 226, 157, 98, 44, 0, -28, -51, -68, -68, -49, -37, -40, -42, -35, -28, -18, -11, -11, -9, 2, 16, 11, -2, -9, -23, -32]"
1713351369588205758,"[-21, -9, -9, -16, -9, -7, -7, 2, -4, -23, -16, 0, 2, 2, 9, 11, 18, 25, 30, 37, 25, 2, 11, 32, 35, 37, 49, 75, 89, 61, 30, 28, 30, 35, 47, 49, 54, 61, 56, 58, 77, 80, 94, 223, 565, 947, 940, 322, -282, -108, 233, 94, 2, 117, 115, 70, 103, 124, 115, 127, 141, 136, 131, 150, 167, 169, 186, 204, 223, 247, 270, 292, 325]"
1713351370149335137,"[353, 365, 384, 388, 365, 325, 256, 176, 113, 56, 2, -28, -49, -87, -96, -75, -65, -63, -51, -40, -35, -42, -44, -40, -37, -30, -16, -7, -4, 4, 11, 16, 25, 35, 35, 30, 40, 47, 47, 37, 23, 14, 16, 23, 23, 21, 23, 18, 23, 35, 42, 44, 32, 23, 35, 56, 61, 63, 75, 89, 89, 77, 65, 63, 58, 61, 75, 82, 84, 87, 87, 87, 101]"
1713351370710464520,"[129, 299, 692, 1027, 871, 148, -348, -51, 186, -11, -32, 73, 32, 16, 63, 58, 56, 87, 101, 108, 120, 124, 139, 162, 183, 197, 212, 230, 261, 294, 322, 343, 355, 362, 369, 360, 325, 268, 188, 110, 65, 37, 9, -9, -25, -25, -16, -7, 0, 9, 9, 9, 23, 35, 40, 42, 44, 49, 58, 68, 77, 80, 73, 70, 82, 91, 89, 89, 87, 84, 87, 77, 54]"
1713351371271593899,"[40, 32, 18, 11, 18, 28, 28, 25, 23, 35, 49, 40, 16, 16, 25, 30, 30, 23, 16, 7, 4, 14, 23, 30, 32, 30, 42, 68, 80, 65, 47, 37, 40, 44, 37, 25, 25, 35, 40, 49, 58, 61, 106, 360, 808, 1069, 709, -61, -261, 129, 157, -37, 40, 103, 44, 54, 94, 94, 89, 103, 115, 122, 129, 141, 136, 124, 131, 148, 162, 190, 219, 242, 280]"
1713351371832708021,"[306, 320, 334, 336, 320, 285, 223, 148, 80, 21, -25, -37, -40, -49, -47, -40, -35, -23, -11, -9, -2, 7, 16, 25, 30, 23, 11, 16, 28, 35, 37, 42, 47, 44, 49, 63, 68, 61, 61, 68, 73, 77, 80, 77, 75, 77, 87, 91, 91, 87, 84, 91, 96, 98, 103, 96, 80, 44, 18, 30, 42, 32, 28, 44, 54, 51, 56, 58, 56, 61, 75, 77, 61]"
1713351372393822139,"[49, 47, 56, 75, 82, 58, 18, -2, 4, 18, 23, 21, 14, 16, 32, 42, 30, 21, 120, 485, 947, 1022, 417, -275, -171, 171, 40, -65, 58, 58, 0, 42, 77, 65, 77, 94, 87, 98, 124, 134, 141, 155, 162, 181, 212, 240, 263, 287, 301, 294, 280, 285, 299, 270, 209, 155, 101, 42, 2, -30, -56, -61, -49, -44, -42, -37, -32, -23, -11, 2, 11, 4, 7]"
1713351372954951518,"[21, 30, 35, 42, 37, 32, 42, 49, 32, 16, 7, 9, 21, 30, 35, 32, 25, 32, 42, 49, 54, 56, 51, 51, 58, 68, 75, 68, 63, 70, 77, 75, 77, 75, 63, 56, 61, 65, 77, 77, 54, 40, 28, 11, 16, 28, 28, 30, 40, 37, 32, 30, 18, 14, 42, 61, 47, 30, 21, 14, 16, 25, 30, 32, 37, 42, 47, 51, 49, 75, 278, 704, 1027]"
1713351373516050379,"[789, 21, -355, 7, 164, -35, -25, 40, -11, 0, 47, 42, 37, 56, 75, 84, 89, 108, 124, 129, 146, 174, 195, 216, 237, 261, 296, 320, 329, 343, 348, 322, 280, 235, 162, 61, -21, -49, -56, -77, -84, -73, -73, -70, -49, -37, -35, -25, -23, -21, -2, 14, 9, 7, 16, 30, 40, 44, 49, 51, 54, 58, 58, 44, 40, 44, 35, 25, 32, 40, 32, 32, 40]"
1713351374077179762,"[49, 54, 51, 42, 28, 28, 40, 49, 44, 25, 18, 25, 21, 18, 25, 23, 14, 25, 42, 44, 44, 49, 56, 61, 63, 49, 35, 25, 11, 7, 23, 35, 28, 23, 32, 49, 58, 89, 282, 697, 1027, 810, 58, -320, 35, 188, -16, 7, 113, 68, 47, 87, 91, 82, 82, 89, 98, 106, 113, 134, 160, 169, 179, 193, 221, 254, 285, 310, 327, 341, 358, 362, 346]"
1713351374638309141,"[308, 237, 153, 87, 40, 4, -18, -37, -49, -47, -35, -23, -25, -35, -40, -25, -9, -2, -7, -25, -40, -42, -42, -30, -25, -40, -37, -18, -11, -4, 4, 2, 0, 9, 21, 25, 25, 23, 28, 28, 18, 14, 14, 2, -9, -11, -11, -7, -2, -2, 2, 11, 21, 28, 25, 28, 35, 40, 49, 54, 54, 56, 61, 65, 75, 77, 77, 77, 77, 84, 98, 98, 91]"
1713351375199438520,"[96, 106, 124, 136, 117, 91, 82, 80, 82, 84, 75, 61, 61, 47, 28, 44, 49, 82, 339, 815, 1121, 789, -30, -294, 113, 162, -42, 28, 98, 42, 54, 91, 82, 89, 108, 110, 101, 98, 117, 134, 136, 155, 179, 195, 219, 245, 268, 303, 329, 341, 353, 355, 343, 310, 249, 174, 108, 56, 18, -2, -16, -21, -21, -21, -14, 0, -9, -25, -28, -30, -23, -7, -2]"
1713351375760557729,"[-2, 2, 7, 14, 23, 23, 4, -30, -49, -37, -30, -40, -47, -44, -37, -28, -21, -16, -11, -14, -9, 7, 16, 16, 16, 16, 21, 21, 14, 18, 25, 23, 30, 44, 51, 54, 54, 54, 61, 70, 75, 77, 75, 75, 84, 91, 96, 98, 91, 91, 98, 108, 110, 110, 103, 101, 113, 122, 120, 103, 84, 96, 124, 139, 129, 106, 82, 82, 96, 106, 106, 98, 75]"
1713351376321666760,"[61, 77, 89, 82, 141, 433, 909, 1133, 666, -120, -221, 146, 98, -56, 47, 87, 23, 32, 58, 44, 51, 73, 73, 75, 91, 108, 122, 139, 146, 155, 179, 209, 240, 270, 289, 308, 332, 348, 351, 336, 292, 219, 139, 73, 28, -11, -47, -61, -61, -56, -63, -75, -73, -63, -54, -37, -30, -37, -42, -42, -47, -44, -35, -30, -37, -51, -65, -54, -37, -42, -40, -28, -21]"
1713351376882796139,"[-14, -7, -4, -4, -2, 4, 16, 11, -9, -23, -21, -11, 2, 4, 4, 9, 16, 25, 32, 35, 37, 47, 51, 54, 63, 63, 61, 68, 70, 73, 82, 84, 82, 84, 87, 91, 96, 94, 91, 98, 101, 89, 77, 84, 94, 91, 91, 110, 131, 134, 122, 103, 89, 89, 96, 94, 91, 80, 56, 58, 75, 70, 65, 162, 497, 947, 1074, 525, -204, -171, 202, 101, -42]"
1713351377443925522,"[56, 68, 14, 44, 63, 28, 25, 54, 65, 75, 91, 96, 103, 127, 148, 160, 181, 204, 228, 263, 282, 285, 301, 315, 310, 296, 261, 195, 122, 61, 16, -18, -56, -91, -94, -82, -89, -94, -84, -87, -91, -80, -70, -65, -54, -47, -47, -37, -23, -18, -25, -44, -54, -37, -23, -14, -7, -9, -16, -4, 9, 14, 21, 23, 16, 11, 21, 30, 30, 30, 35, 42, 49]"
1713351378005024383,"[49, 54, 54, 51, 58, 73, 77, 68, 47, 37, 51, 65, 70, 70, 68, 70, 80, 87, 84, 80, 87, 113, 129, 115, 80, 56, 56, 68, 77, 77, 77, 77, 75, 80, 91, 96, 143, 400, 852, 1100, 711, -77, -278, 115, 141, -51, 28, 96, 37, 42, 77, 75, 80, 98, 108, 110, 106, 110, 136, 155, 164, 167, 171, 200, 233, 256, 278, 301, 320, 332, 336, 325, 282]"
1713351378566153762,"[204, 122, 63, 14, -42, -82, -101, -117, -115, -98, -96, -115, -122, -108, -101, -108, -101, -87, -87, -82, -63, -42, -40, -42, -30, -18, -14, -7, 4, 9, 9, 14, 23, 28, 28, 28, 14, -9, -2, 18, 16, 14, 23, 28, 30, 44, 47, 32, 30, 44, 51, 49, 56, 70, 68, 68, 77, 87, 101, 117, 117, 96, 77, 75, 75, 77, 84, 87, 84, 89, 94, 96, 96]"
1713351379127252623,"[110, 259, 652, 1055, 996, 280, -327, -80, 212, 2, -56, 77, 47, 9, 61, 73, 61, 80, 96, 98, 106, 120, 136, 146, 157, 176, 190, 212, 242, 256, 252, 273, 306, 320, 325, 322, 285, 223, 148, 75, 16, -32, -73, -87, -91, -91, -84, -77, -75, -68, -61, -51, -42, -37, -30, -23, -28, -32, -23, -23, -35, -32, -23, -16, -7, -2, -4, -4, 2, 4, -7, -11, -9]"
1713351379688382002,"[-9, 0, 11, 14, 18, 9, -9, -4, 14, 21, 21, 21, 21, 30, 42, 49, 51, 51, 51, 61, 70, 73, 61, 30, 25, 47, 56, 56, 56, 47, 44, 63, 73, 73, 82, 94, 103, 108, 94, 80, 75, 73, 75, 84, 91, 96, 96, 94, 96, 103, 134, 351, 803, 1142, 892, 101, -266, 98, 212, -16, 14, 98, 37, 37, 77, 63, 63, 91, 101, 103, 110, 115, 129]"
1713351380249511385,"[148, 167, 181, 193, 209, 235, 275, 306, 322, 320, 322, 334, 329, 296, 237, 148, 51, 2, -21, -54, -87, -101, -94, -84, -75, -63, -54, -56, -61, -58, -44, -35, -32, -30, -23, -14, -2, 4, 4, 2, 9, 16, 23, 21, 11, 4, 0, -7, 0, 4, 0, -7, -18, -21, -9, -2, -7, -2, 7, 16, 21, 25, 25, 30, 35, 42, 47, 49, 51, 54, 56, 61, 68]"
1713351380810615333,"[70, 68, 70, 73, 75, 75, 61, 40, 23, 14, 18, 18, 7, 14, 28, 28, 35, 54, 61, 58, 65, 80, 101, 113, 101, 82, 73, 70, 77, 84, 84, 84, 89, 91, 94, 94, 87, 153, 438, 892, 1126, 706, -84, -235, 153, 141, -42, 42, 91, 37, 58, 94, 80, 80, 101, 110, 115, 124, 134, 141, 153, 169, 186, 204, 228, 254, 282, 315, 339, 353, 362, 362, 348]"
1713351381371739625,"[299, 204, 110, 44, -4, -40, -54, -65, -80, -94, -101, -84, -65, -65, -75, -75, -63, -47, -37, -30, -30, -28, -21, -7, 2, 7, 7, 7, 14, 16, 7, 0, -9, -21, -30, -35, -28, -21, -23, -23, -11, -2, 2, 4, 2, 2, 11, 23, 30, 35, 30, 28, 40, 54, 56, 54, 49, 54, 65, 70, 70, 68, 65, 68, 75, 82, 75, 47, 30, 44, 61, 61, 63]"
1713351381932853747,"[68, 63, 68, 84, 89, 96, 108, 115, 117, 110, 91, 82, 70, 51, 58, 73, 75, 75, 75, 73, 75, 91, 242, 652, 1064, 973, 245, -315, -54, 221, 25, -32, 87, 70, 40, 84, 89, 70, 91, 113, 117, 124, 129, 134, 150, 167, 188, 207, 219, 237, 273, 303, 327, 343, 351, 353, 351, 318, 254, 167, 63, -14, -44, -68, -94, -103, -103, -101, -91, -80, -73, -68, -61]"
1713351382493967865,"[-56, -49, -42, -42, -47, -54, -61, -51, -35, -44, -73, -70, -51, -44, -35, -23, -28, -40, -37, -18, -14, -16, -9, -2, 2, 7, 16, 18, 18, 21, 30, 37, 44, 47, 51, 51, 56, 61, 61, 61, 75, 77, 70, 82, 91, 84, 94, 110, 108, 94, 80, 56, 32, 23, 23, 28, 37, 44, 51, 56, 61, 70, 82, 204, 581, 994, 975, 322, -308, -129, 214, 73, -23]"
1713351383055092161,"[94, 87, 37, 82, 110, 89, 96, 110, 103, 117, 139, 141, 139, 134, 148, 181, 202, 221, 256, 285, 310, 343, 362, 362, 343, 303, 252, 183, 96, 25, -21, -54, -63, -65, -70, -70, -65, -58, -49, -54, -73, -82, -77, -80, -89, -98, -101, -94, -87, -75, -56, -47, -44, -42, -35, -23, -14, -9, -2, -4, -4, 4, 14, 21, 21, 18, 23, 30, 35, 44, 51, 42, 30]"
1713351383616196105,"[42, 56, 56, 51, 37, 28, 40, 56, 61, 61, 61, 63, 75, 96, 117, 117, 91, 75, 80, 84, 89, 89, 82, 82, 94, 101, 106, 101, 96, 174, 490, 944, 1116, 600, -195, -233, 190, 124, -70, 14, 54, 4, 35, 73, 65, 65, 77, 87, 103, 120, 129, 136, 146, 164, 188, 212, 235, 256, 280, 310, 341, 358, 360, 343, 318, 278, 214, 143, 80, 25, -16, -32, -35]"
1713351384177325488,"[-37, -49, -61, -56, -44, -32, -28, -42, -54, -44, -30, -21, -14, -11, -11, -4, 2, -4, -9, -11, -23, -32, -37, -32, -25, -23, -25, -21, -11, -11, -32, -49, -37, -25, -21, -9, -4, -2, 4, 9, 14, 23, 25, 28, 32, 37, 42, 49, 51, 51, 56, 63, 65, 65, 61, 61, 70, 73, 75, 82, 80, 84, 89, 89, 96, 103, 98, 103, 122, 136, 136, 122, 101]"
1713351384738454867,"[94, 98, 98, 98, 101, 98, 103, 106, 103, 101, 87, 146, 468, 940, 1100, 574, -195, -219, 169, 87, -68, 42, 61, -18, 7, 51, 37, 40, 61, 70, 80, 94, 103, 113, 127, 143, 164, 186, 204, 230, 259, 289, 318, 336, 334, 318, 296, 266, 209, 136, 68, 16, -18, -40, -44, -47, -51, -51, -42, -30, -25, -32, -37, -32, -23, -14, -4, 0, -2, -2, 4, 14, 21]"
1713351385299568989,"[23, 21, 21, 14, -2, -9, -9, -37, -58, -47, -32, -30, -28, -28, -30, -30, -44, -51, -40, -37, -37, -23, -9, -4, -2, -7, -4, 14, 23, 25, 30, 28, 30, 42, 51, 47, 35, 25, 35, 47, 54, 61, 61, 54, 58, 70, 77, 82, 80, 73, 77, 87, 94, 98, 96, 91, 98, 106, 113, 127, 139, 131, 120, 108, 101, 103, 98, 87, 75, 77, 87, 89, 84]"
1713351385860683107,"[80, 82, 179, 515, 968, 1074, 508, -202, -160, 179, 40, -110, 0, 23, -21, 18, 44, 25, 30, 58, 70, 77, 89, 96, 106, 124, 139, 141, 150, 176, 202, 230, 266, 292, 306, 313, 318, 306, 273, 214, 139, 73, 25, -11, -32, -49, -68, -73, -68, -61, -49, -44, -44, -37, -28, -21, -11, -7, -14, -25, -30, -25, -28, -37, -42, -35, -30, -30, -28, -28, -25, -16, -16]"
1713351386421812486,"[-14, -21, -42, -47, -35, -35, -30, -18, -40, -56, -40, -25, -21, -14, -7, -2, 4, 4, -2, -9, -7, 9, 21, 21, 21, 30, 40, 44, 44, 47, 56, 56, 56, 63, 70, 68, 70, 70, 70, 80, 89, 89, 91, 89, 94, 115, 129, 124, 108, 87, 70, 70, 82, 84, 75, 73, 84, 91, 89, 84, 113, 315, 756, 1112, 883, 91, -315, 25, 181, -23, -11, 75, 28]"
1713351386982941869,"[18, 65, 73, 63, 77, 77, 63, 75, 94, 89, 82, 103, 131, 143, 150, 171, 200, 228, 254, 278, 292, 299, 294, 266, 219, 157, 87, 25, -32, -84, -106, -108, -117, -127, -127, -122, -108, -96, -87, -77, -77, -87, -77, -58, -49, -51, -47, -35, -25, -16, -9, -4, -2, 0, 7, 14, 21, 21, 11, 14, 16, -4, -11, 2, 2, 0, 16, 28, 32, 32, 30, 35, 37]"
1713351387544040730,"[32, 35, 35, 25, 30, 49, 56, 58, 44, 25, 37, 54, 61, 77, 91, 87, 75, 68, 61, 63, 65, 63, 68, 77, 84, 87, 84, 82, 89, 181, 499, 944, 1067, 527, -209, -214, 181, 127, -30, 61, 96, 49, 77, 103, 87, 91, 113, 120, 129, 141, 146, 153, 155, 139, 139, 167, 186, 207, 247, 278, 296, 315, 322, 318, 294, 245, 181, 110, 35, -32, -70, -96, -120]"
1713351388105170109,"[-124, -120, -117, -108, -91, -87, -84, -75, -63, -56, -47, -49, -61, -51, -35, -28, -16, -9, -7, 0, 9, 18, 23, 18, 14, 21, 23, 28, 40, 40, 40, 47, 49, 54, 61, 63, 68, 73, 73, 77, 84, 84, 84, 89, 82, 58, 47, 56, 63, 61, 61, 70, 70, 70, 77, 73, 58, 63, 77, 89, 108, 115, 94, 77, 75, 77, 84, 87, 87, 89, 94, 96, 103]"
1713351388666299488,"[103, 113, 268, 680, 1100, 1027, 289, -282, -28, 202, -2, -25, 89, 49, 14, 54, 63, 61, 80, 89, 89, 98, 115, 129, 139, 148, 162, 179, 204, 230, 256, 280, 301, 322, 336, 336, 322, 278, 202, 139, 87, 28, -21, -58, -80, -87, -94, -98, -91, -84, -91, -91, -80, -80, -84, -80, -73, -63, -49, -37, -35, -37, -32, -21, -11, -4, 0, -2, 0, 11, 18, 23, 25]"
1713351389227418697,"[21, 23, 35, 44, 47, 28, -4, -9, 14, 21, 23, 28, 25, 28, 42, 51, 56, 56, 54, 58, 70, 75, 80, 77, 70, 75, 87, 91, 94, 91, 73, 56, 70, 82, 77, 84, 98, 101, 84, 68, 58, 51, 49, 58, 68, 75, 77, 75, 73, 80, 87, 143, 424, 881, 1102, 673, -98, -223, 171, 146, -40, 54, 110, 49, 65, 94, 80, 87, 110, 106, 91, 96, 110]"
1713351389788527728,"[122, 139, 155, 169, 183, 204, 233, 263, 287, 294, 296, 313, 322, 313, 282, 223, 150, 84, 35, 0, -28, -44, -61, -87, -98, -84, -84, -91, -94, -96, -87, -65, -61, -61, -49, -40, -32, -21, -14, -11, -7, -11, -16, -14, -18, -25, -21, -14, -14, -7, -4, -4, 0, 2, 7, 14, 14, 16, 23, 23, 18, 9, 7, 16, 23, 23, 30, 37, 37, 42, 49, 49, 54]"
1713351390349657107,"[58, 56, 61, 68, 68, 65, 56, 44, 54, 68, 63, 65, 73, 87, 106, 108, 70, 23, 14, 18, 14, 14, 23, 25, 28, 37, 49, 49, 51, 141, 473, 925, 1041, 480, -233, -183, 183, 80, -47, 65, 80, 25, 58, 87, 75, 80, 98, 98, 106, 124, 134, 129, 124, 139, 167, 186, 204, 228, 256, 278, 299, 322, 334, 334, 315, 278, 219, 153, 96, 42, -9, -37, -40]"
1713351390910786490,"[-42, -42, -40, -51, -70, -65, -40, -30, -54, -75, -75, -82, -89, -70, -58, -63, -56, -44, -35, -23, -16, -25, -25, -7, 2, 2, 2, -11, -18, -14, -16, -16, -11, -21, -21, -2, 7, 7, 9, 4, 4, 21, 16, -2, -2, 7, 9, 18, 37, 42, 30, 28, 49, 75, 89, 87, 56, 30, 44, 61, 58, 61, 58, 51, 63, 75, 80, 82, 115, 329, 765, 1060, 753]"
1713351391471885351,"[-28, -365, -7, 134, -56, -25, 68, 18, 9, 56, 61, 58, 61, 44, 44, 77, 101, 106, 115, 131, 150, 171, 200, 228, 252, 273, 299, 322, 339, 343, 332, 299, 240, 155, 70, 16, -23, -54, -73, -77, -73, -61, -58, -63, -54, -35, -18, -16, -18, -11, 2, 7, 4, -2, -2, 7, 14, 14, 16, 23, 28, 25, 21, 25, 42, 42, 16, -9, -14, -16, -14, -18, -23]"
1713351392033014730,"[-21, -18, -11, 0, 0, 4, 14, 14, 18, 32, 30, 28, 28, 11, 2, 9, 16, 21, 25, 25, 30, 40, 47, 51, 51, 84, 320, 770, 1048, 711, -75, -348, 61, 162, -42, 7, 91, 40, 40, 82, 80, 84, 103, 108, 115, 127, 136, 153, 169, 181, 195, 214, 235, 266, 294, 313, 332, 341, 325, 306, 287, 249, 186, 117, 56, 9, -25, -54, -70, -70, -63, -54, -49]"
1713351392594144109,"[-44, -40, -32, -16, -4, 0, -4, -14, -16, 0, 14, 16, 16, 21, 30, 35, 28, 21, 23, 25, 30, 40, 47, 49, 44, 32, 28, 37, 44, 47, 40, 37, 47, 56, 61, 61, 56, 54, 65, 73, 73, 61, 47, 42, 40, 42, 51, 54, 49, 54, 42, 2, -18, -9, -7, -9, 7, 18, 23, 25, 23, 30, 40, 89, 343, 810, 1100, 749, -56, -299, 106, 150, -63]"
1713351393155242970,"[7, 87, 32, 42, 77, 61, 58, 73, 73, 77, 75, 65, 84, 115, 129, 146, 162, 181, 212, 249, 280, 303, 315, 325, 332, 325, 292, 233, 155, 87, 40, 7, -14, -28, -37, -40, -30, -18, -16, -21, -23, -16, -9, -21, -35, -28, -18, -18, -7, 9, 16, 16, 16, 21, 28, 37, 42, 42, 42, 47, 51, 58, 61, 58, 58, 61, 65, 70, 70, 68, 68, 56, 47]"
1713351393716372349,"[56, 58, 40, 37, 42, 44, 47, 37, 21, 23, 32, 35, 42, 47, 47, 51, 51, 51, 61, 70, 61, 35, 16, 11, 16, 16, 18, 23, 23, 23, 21, 11, 14, 25, 94, 388, 836, 1010, 530, -230, -292, 106, 49, -115, -7, 37, -21, 7, 42, 28, 40, 65, 65, 73, 89, 98, 113, 134, 146, 160, 181, 204, 221, 237, 266, 294, 310, 320, 327, 310, 268, 207, 134]"
1713351394277501732,"[73, 32, -2, -32, -51, -70, -70, -54, -47, -44, -37, -30, -21, -4, 2, 0, 7, 16, 23, 30, 32, 21, 7, 16, 30, 32, 32, 28, 9, 0, 21, 35, 23, 18, 28, 32, 35, 44, 47, 40, 42, 63, 73, 65, 65, 68, 63, 68, 80, 87, 82, 75, 65, 49, 40, 49, 49, 37, 37, 47, 54, 65, 65, 58, 65, 87, 106, 103, 65, 28, 21, 23, 18]"
1713351394838631111,"[23, 21, 11, 23, 32, 28, 35, 42, 160, 558, 987, 914, 188, -393, -143, 134, -49, -96, 23, 4, -40, -21, -7, 0, 25, 35, 32, 49, 73, 82, 96, 108, 120, 146, 176, 207, 230, 249, 270, 294, 315, 325, 320, 289, 221, 141, 84, 37, -11, -51, -70, -73, -65, -54, -54, -58, -49, -32, -23, -14, -7, -7, -4, 4, 9, 16, 21, 14, 21, 40, 42, 40, 44]"
1713351395399745233,"[40, 40, 49, 42, 18, 21, 32, 28, 28, 44, 40, 11, -7, -21, -35, -21, -2, -4, -11, -11, -4, 4, 9, 9, 18, 40, 54, 47, 28, 18, 21, 21, 25, 37, 32, 11, -2, -9, -9, 0, 21, 176, 572, 949, 836, 124, -405, -131, 150, -23, -75, 44, 28, -4, 32, 44, 44, 65, 70, 73, 91, 101, 115, 131, 139, 157, 188, 200, 200, 226, 266, 292, 308]"
1713351395960859351,"[320, 329, 318, 287, 219, 108, 23, -18, -75, -124, -122, -113, -113, -108, -98, -89, -80, -68, -56, -47, -40, -35, -21, -9, -7, 2, 11, 7, 9, 18, 21, 23, 28, 35, 44, 49, 47, 42, 40, 51, 61, 68, 63, 56, 61, 75, 75, 73, 75, 70, 61, 63, 84, 103, 101, 84, 63, 54, 54, 35, 25, 40, 54, 49, 47, 42, 30, 21, 40, 219, 643, 1001, 810]"
1713351396521988730,"[37, -435, -101, 131, -73, -108, -14, -37, -44, 0, 4, -2, 21, 40, 47, 70, 89, 87, 87, 110, 139, 162, 181, 202, 235, 275, 296, 320, 339, 327, 308, 280, 219, 143, 77, 18, -18, -32, -40, -42, -44, -49, -32, -16, -14, -7, -2, -2, 7, 11, 2, 4, 14, 11, 18, 40, 49, 47, 44, 44, 54, 63, 65, 68, 51, 28, 32, 49, 51, 51, 51, 49, 54]"
1713351397083118109,"[63, 68, 68, 63, 61, 73, 82, 80, 77, 65, 61, 77, 87, 77, 56, 44, 63, 80, 70, 58, 42, 30, 37, 49, 54, 56, 58, 56, 58, 61, 54, 68, 256, 697, 1081, 885, 80, -362, -11, 148, -84, -77, 25, -18, -32, 11, 16, 18, 40, 47, 49, 65, 77, 87, 106, 120, 127, 129, 131, 164, 207, 230, 254, 278, 292, 301, 294, 254, 193, 127, 61, 9, -25]"
1713351397644247492,"[-56, -73, -70, -68, -63, -61, -70, -68, -49, -42, -35, -23, -18, -9, 0, 4, 11, 18, 21, 30, 37, 35, 42, 49, 47, 51, 58, 58, 58, 63, 61, 61, 49, 40, 49, 51, 49, 61, 68, 61, 63, 65, 68, 75, 77, 75, 75, 77, 80, 77, 58, 37, 44, 58, 61, 68, 70, 73, 77, 82, 80, 65, 47, 40, 35, 35, 42, 49, 51, 49, 51, 56, 58]"
1713351398205356527,"[65, 204, 607, 1024, 949, 223, -343, -91, 141, -77, -115, 9, -14, -42, -2, 2, -2, 23, 40, 42, 47, 61, 70, 73, 84, 106, 120, 141, 176, 209, 242, 270, 285, 296, 310, 308, 278, 219, 143, 73, 28, -9, -51, -91, -108, -96, -84, -77, -61, -54, -56, -44, -25, -16, -14, -25, -30, -14, -2, 0, 14, 18, 9, 18, 37, 40, 42, 44, 40, 44, 58, 61, 58]"
1713351398766475732,"[58, 54, 61, 73, 77, 77, 70, 65, 75, 87, 87, 82, 63, 44, 42, 47, 54, 61, 56, 54, 70, 91, 108, 108, 80, 58, 65, 73, 70, 73, 70, 58, 54, 61, 63, 40, 18, 120, 478, 930, 1008, 405, -287, -181, 174, 40, -94, 0, 4, -47, -23, 0, -9, -2, 14, 21, 30, 49, 61, 70, 84, 101, 122, 148, 174, 200, 228, 254, 280, 301, 306, 294, 268]"
1713351399327605111,"[219, 155, 89, 30, -16, -58, -87, -89, -80, -91, -103, -87, -70, -63, -54, -47, -40, -28, -21, -14, -7, -4, 2, 11, 14, 18, 30, 23, 0, -11, 0, 9, 11, 14, 23, 28, 28, 16, 9, 16, 28, 32, 32, 40, 44, 47, 56, 63, 63, 68, 87, 106, 103, 82, 63, 63, 70, 68, 70, 77, 75, 77, 84, 82, 75, 82, 245, 669, 1055, 878, 96, -362, -23]"
1713351399888734490,"[174, -40, -42, 73, 35, 7, 35, 9, -4, 21, 18, 9, 23, 42, 51, 68, 87, 101, 117, 141, 157, 164, 183, 216, 233, 240, 254, 247, 197, 117, 47, -2, -40, -68, -91, -103, -106, -101, -89, -75, -65, -65, -56, -37, -28, -21, -11, -11, -9, 7, 16, 21, 28, 25, 21, 30, 40, 49, 51, 42, 32, 35, 47, 47, 40, 37, 44, 49, 54, 65, 73, 63, 65]"
1713351400449863869,"[82, 96, 110, 98, 54, 25, 35, 44, 47, 44, 35, 40, 49, 37, 18, 16, 18, 124, 485, 937, 968, 303, -384, -226, 150, 14, -98, 16, 18, -18, 32, 51, 30, 47, 56, 44, 56, 73, 65, 61, 80, 106, 124, 148, 174, 193, 214, 249, 273, 282, 292, 268, 216, 167, 113, 44, -11, -56, -80, -84, -87, -82, -75, -75, -73, -61, -44, -30, -28, -30, -25, -7, 11]"
1713351401010967821,"[11, 9, 18, 23, 28, 30, 2, -37, -32, -16, -25, -30, -21, -18, -14, -7, 0, 16, 28, 28, 30, 40, 58, 77, 75, 51, 37, 40, 51, 56, 51, 51, 63, 70, 70, 77, 80, 75, 190, 572, 1022, 1024, 329, -329, -136, 202, 51, -35, 84, 80, 35, 73, 98, 84, 89, 96, 91, 101, 115, 113, 122, 148, 167, 176, 197, 226, 249, 275, 303, 313, 313, 299, 256]"
1713351401572092113,"[200, 120, 30, -30, -75, -117, -136, -141, -143, -148, -157, -157, -134, -122, -120, -103, -91, -84, -68, -54, -54, -40, -21, -18, -16, -2, 9, 7, 7, 16, 28, 30, 30, 25, 16, 21, 37, 44, 37, 44, 58, 63, 68, 77, 91, 101, 91, 70, 63, 68, 68, 63, 68, 80, 87, 84, 82, 84, 87, 96, 228, 614, 1055, 1041, 325, -355, -155, 183, 4, -84, 51, 49, 9]"
1713351402133221492,"[51, 61, 44, 70, 94, 96, 98, 96, 89, 110, 139, 155, 171, 188, 212, 245, 275, 299, 313, 313, 313, 308, 278, 214, 129, 42, -7, -30, -51, -63, -68, -73, -65, -51, -42, -37, -32, -30, -21, -14, -16, -18, -23, -30, -28, -16, -11, -9, -9, -14, -7, 4, 9, 9, 4, 2, -2, -23, -42, -37, -28, -32, -21, -4, 2, 7, 7, 11, 21, 32, 42, 47, 44]"
1713351402694350871,"[47, 65, 94, 106, 94, 68, 51, 58, 70, 70, 56, 40, 42, 58, 65, 61, 44, 54, 219, 652, 1086, 982, 209, -329, -28, 197, -11, -30, 80, 40, 18, 68, 77, 68, 84, 94, 94, 108, 127, 134, 141, 155, 171, 190, 214, 240, 261, 275, 282, 292, 289, 268, 252, 228, 169, 101, 49, 0, -35, -56, -73, -87, -84, -80, -75, -65, -58, -49, -40, -35, -25, -18, -16]"
1713351403255475167,"[-7, 0, 0, -4, -9, -16, -32, -61, -80, -68, -56, -56, -49, -40, -42, -32, -23, -21, -18, -11, -7, 2, 9, 11, 16, 21, 23, 30, 40, 37, 35, 40, 47, 56, 63, 61, 63, 68, 80, 87, 82, 63, 44, 28, 16, 23, 35, 35, 37, 51, 68, 73, 65, 65, 115, 395, 881, 1097, 610, -162, -223, 167, 115, -47, 49, 84, 23, 49, 82, 75, 73, 70, 65]"
1713351403816579111,"[80, 98, 110, 120, 122, 120, 136, 167, 193, 219, 237, 256, 280, 301, 310, 303, 270, 212, 157, 101, 40, -4, -37, -61, -63, -58, -56, -51, -51, -54, -54, -51, -49, -51, -63, -77, -89, -91, -77, -68, -75, -68, -51, -44, -37, -32, -35, -30, -16, -9, -2, 0, -2, 0, 9, 25, 32, 23, 18, 30, 42, 40, 25, 21, 25, 30, 37, 49, 54, 49, 47, 61, 70]"
1713351404377708494,"[70, 77, 89, 96, 108, 103, 80, 61, 47, 37, 44, 56, 58, 58, 51, 44, 58, 68, 103, 341, 796, 1074, 730, -58, -306, 91, 146, -68, -23, 30, -18, 2, 30, 16, 28, 58, 63, 70, 87, 94, 96, 103, 115, 129, 148, 162, 183, 226, 259, 263, 275, 287, 280, 254, 212, 153, 75, 2, -44, -82, -110, -117, -117, -120, -115, -103, -96, -89, -77, -70, -61, -51, -44]"
1713351404938837873,"[-35, -32, -32, -14, -4, -11, -9, 4, 9, 9, 14, 18, 9, -2, 7, 21, 9, -2, 2, 7, 4, -9, -25, -23, -7, 2, 4, 14, 21, 28, 42, 58, 70, 75, 58, 37, 37, 47, 49, 54, 54, 54, 65, 68, 49, 42, 51, 110, 384, 841, 1029, 567, -181, -275, 134, 146, -37, 37, 96, 44, 58, 91, 68, 58, 82, 98, 106, 113, 117, 124, 139, 160, 176]"
1713351405499967252,"[188, 214, 237, 247, 252, 266, 280, 263, 226, 188, 146, 89, 16, -65, -129, -146, -146, -157, -157, -148, -134, -122, -110, -96, -82, -75, -70, -58, -42, -21, -14, -18, -11, 2, 4, 2, 0, -2, 2, 14, 23, 30, 35, 30, 28, 42, 51, 54, 56, 54, 54, 68, 80, 82, 82, 84, 101, 122, 124, 98, 75, 70, 77, 84, 89, 91, 89, 75, 73, 89, 94, 101, 230]"
1713351406061086461,"[607, 1024, 1005, 320, -299, -94, 197, 23, -35, 82, 61, -2, 9, 28, 37, 54, 65, 70, 73, 91, 110, 127, 141, 150, 164, 186, 200, 204, 221, 235, 237, 252, 261, 252, 219, 153, 77, 25, -11, -49, -73, -82, -89, -82, -68, -61, -54, -49, -44, -28, -16, -11, -4, 2, 0, 9, 23, 28, 23, 18, 23, 30, 40, 40, 40, 44, 42, 42, 51, 58, 51, 30, 18]"
1713351406622195492,"[30, 42, 40, 40, 47, 47, 47, 58, 56, 35, 32, 47, 54, 61, 61, 63, 77, 84, 77, 70, 51, 37, 47, 54, 54, 58, 65, 65, 68, 75, 80, 82, 148, 454, 925, 1102, 591, -169, -200, 188, 115, -58, 37, 73, 11, 32, 68, 54, 58, 70, 65, 75, 94, 98, 110, 127, 134, 141, 157, 174, 181, 200, 223, 221, 209, 216, 223, 197, 150, 96, 35, -21, -58]"
1713351407183324871,"[-84, -98, -96, -94, -94, -96, -101, -101, -94, -89, -82, -73, -63, -54, -37, -25, -21, -18, -11, -2, 9, 11, 14, 16, 21, 28, 35, 40, 40, 42, 44, 51, 61, 61, 58, 58, 63, 70, 75, 73, 54, 40, 49, 61, 63, 68, 65, 63, 70, 82, 87, 87, 84, 96, 117, 127, 96, 49, 32, 42, 49, 56, 65, 65, 58, 61, 73, 80, 82, 134, 398, 850, 1081]"
1713351407744454254,"[645, -134, -256, 117, 75, -106, -11, 42, -16, -7, 28, 28, 37, 58, 65, 61, 75, 96, 113, 127, 134, 134, 150, 171, 190, 216, 237, 245, 259, 273, 270, 240, 179, 108, 51, 4, -32, -56, -77, -91, -87, -73, -63, -56, -56, -51, -40, -23, -16, -30, -51, -47, -25, -16, -11, 0, 4, 0, 7, 23, 30, 35, 28, 16, 14, 21, 30, 32, 30, 32, 40, 47, 54]"
1713351408305583633,"[56, 54, 51, 61, 75, 80, 70, 70, 73, 77, 84, 84, 70, 51, 58, 73, 77, 82, 80, 77, 87, 106, 113, 91, 68, 56, 49, 56, 68, 65, 63, 68, 70, 75, 84, 84, 96, 247, 645, 1036, 918, 183, -332, -54, 171, -25, -49, 58, 18, -2, 49, 54, 42, 61, 68, 56, 65, 75, 70, 70, 82, 94, 113, 139, 167, 183, 204, 230, 245, 252, 256, 247, 219]"
1713351408866713012,"[164, 98, 49, -2, -42, -56, -68, -80, -77, -84, -96, -80, -58, -68, -77, -73, -58, -42, -35, -32, -25, -11, -7, -2, 9, 14, 11, 18, 21, 23, 28, 32, 35, 35, 28, 11, 0, 14, 21, 14, 21, 32, 37, 37, 44, 49, 42, 40, 44, 42, 44, 56, 63, 65, 70, 73, 77, 98, 120, 108, 75, 58, 68, 73, 70, 77, 82, 75, 77, 84, 82, 77, 148]"
1713351409427842391,"[452, 888, 998, 459, -256, -249, 124, 42, -103, 11, 40, -14, 11, 21, 0, 21, 32, 21, 25, 42, 58, 75, 89, 106, 124, 141, 162, 181, 183, 197, 221, 233, 245, 249, 230, 179, 106, 32, -18, -54, -80, -96, -108, -103, -84, -73, -68, -65, -58, -44, -30, -21, -9, -7, -7, 7, 23, 25, 30, 37, 30, 37, 51, 56, 58, 54, 49, 54, 56, 49, 44, 42, 42]"
1713351409988971770,"[49, 56, 63, 63, 63, 63, 68, 75, 82, 75, 54, 56, 91, 106, 94, 73, 51, 47, 63, 58, 30, 21, 23, 18, 23, 37, 42, 56, 219, 626, 1005, 857, 103, -376, -51, 171, -30, -35, 63, 7, -18, 21, 21, 18, 40, 49, 51, 63, 80, 96, 110, 122, 139, 160, 183, 214, 237, 259, 278, 289, 282, 275, 263, 223, 155, 82, 25, -9, -42, -68, -70, -65, -65]"
1713351410550101149,"[-56, -49, -42, -35, -30, -23, -18, -30, -32, -18, -9, -4, -2, -14, -16, -2, 4, 9, 14, 9, 7, 18, 21, 23, 32, 30, 35, 44, 42, 47, 58, 56, 58, 65, 65, 68, 73, 75, 80, 84, 87, 89, 91, 89, 98, 115, 129, 129, 113, 89, 82, 70, 61, 65, 70, 65, 61, 61, 63, 61, 58, 155, 501, 958, 1062, 468, -256, -169, 202, 70, -61, 49, 49]"
1713351411111230532,"[-4, 23, 35, 14, 11, 2, -11, -7, 14, 21, 23, 37, 68, 96, 117, 141, 167, 200, 233, 259, 270, 270, 261, 235, 188, 122, 58, 2, -37, -54, -58, -61, -58, -58, -56, -42, -28, -18, -11, -11, -9, 2, 0, -4, 4, 7, 7, 18, 30, 32, 35, 30, 30, 44, 51, 54, 54, 51, 51, 58, 65, 70, 68, 61, 65, 75, 80, 82, 80, 73, 77, 80, 58]"
1713351411672339567,"[42, 42, 37, 40, 54, 65, 68, 65, 61, 68, 89, 110, 115, 84, 42, 35, 49, 56, 58, 49, 32, 35, 47, 54, 54, 49, 94, 365, 834, 1079, 664, -129, -285, 110, 98, -96, -18, 23, -47, -32, 9, 4, 4, 18, 23, 35, 56, 68, 77, 89, 106, 127, 153, 181, 209, 230, 252, 282, 301, 308, 301, 270, 223, 162, 89, 9, -49, -73, -84, -89, -80, -73, -73]"
1713351412233458772,"[-65, -56, -44, -30, -23, -18, -11, -7, 2, 9, 2, -9, -2, 7, 9, 18, 23, 23, 28, 32, 32, 42, 51, 44, 25, 18, 32, 42, 37, 40, 47, 49, 47, 54, 58, 61, 61, 63, 65, 70, 70, 73, 75, 75, 80, 84, 77, 77, 82, 87, 91, 87, 87, 96, 101, 98, 106, 101, 70, 40, 23, 14, 14, 23, 25, 25, 30, 37, 42, 40, 40, 75, 285]"
1713351412794588151,"[725, 1055, 760, -51, -358, 28, 103, -106, -65, 11, -25, -40, -11, -9, -2, 16, 7, 7, 32, 42, 47, 77, 110, 117, 131, 164, 193, 219, 249, 270, 282, 285, 287, 278, 242, 176, 96, 35, -4, -35, -51, -58, -65, -70, -61, -44, -35, -44, -61, -58, -56, -68, -63, -44, -42, -37, -25, -18, -4, 7, -4, -2, 18, 28, 30, 37, 28, 23, 35, 44, 47, 44, 42]"
1713351413355717530,"[49, 61, 58, 56, 56, 30, 11, 14, 21, 30, 28, 18, 25, 49, 65, 65, 54, 51, 75, 106, 103, 80, 58, 40, 30, 51, 65, 51, 44, 47, 54, 61, 63, 80, 190, 520, 923, 940, 294, -353, -195, 139, -4, -110, -21, -25, -61, -25, -4, -9, 11, 28, 23, 30, 54, 77, 89, 108, 134, 148, 164, 193, 228, 254, 278, 301, 322, 325, 301, 263, 200, 115, 44]"
1713351413916846913,"[-2, -37, -61, -77, -89, -80, -63, -65, -75, -68, -54, -47, -37, -28, -23, -18, -14, -2, 9, 16, 21, 25, 28, 40, 54, 54, 54, 58, 51, 40, 37, 40, 37, 40, 47, 49, 35, 14, 16, 30, 30, 32, 47, 54, 49, 58, 84, 101, 89, 70, 58, 51, 42, 47, 54, 49, 49, 56, 61, 65, 68, 70, 179, 546, 989, 1017, 351, -334, -169, 171, 2, -94, 30]"
1713351414477945774,"[21, -23, 18, 35, 21, 21, 18, 30, 49, 58, 73, 89, 103, 124, 148, 169, 197, 228, 256, 285, 296, 285, 285, 280, 235, 169, 101, 30, -28, -77, -106, -96, -94, -98, -87, -75, -68, -54, -37, -35, -32, -23, -7, 7, 11, 14, 21, 25, 35, 47, 49, 51, 51, 44, 47, 56, 61, 58, 56, 58, 65, 75, 73, 68, 68, 73, 80, 84, 84, 82, 77, 84, 91]"
1713351415039075153,"[96, 96, 91, 89, 94, 101, 106, 101, 82, 63, 68, 68, 47, 40, 42, 37, 47, 70, 89, 91, 70, 30, 9, 21, 35, 30, 28, 23, 18, 23, 21, 9, 2, 68, 374, 866, 1104, 629, -195, -289, 120, 70, -103, -4, 23, -37, 0, 40, 28, 32, 44, 54, 68, 87, 96, 106, 115, 134, 157, 181, 207, 230, 252, 282, 313, 329, 336, 327, 294, 247, 183, 115, 58]"
1713351415600204532,"[9, -25, -44, -56, -61, -54, -54, -54, -40, -23, -18, -23, -37, -47, -56, -54, -35, -28, -30, -25, -11, 0, 7, 9, 9, 14, 23, 32, 37, 37, 37, 42, 47, 54, 51, 42, 40, 44, 54, 58, 61, 61, 61, 61, 68, 73, 75, 75, 75, 73, 65, 61, 63, 63, 61, 63, 65, 70, 70, 70, 73, 75, 75, 80, 77, 70, 51, 30, 18, 18, 16, 16, 21]"
1713351416161333911,"[21, 25, 30, 32, 40, 35, 7, -2, 21, 23, 11, 7, -2, -9, 2, 7, 9, 18, 23, 30, 37, 40, 42, 51, 181, 570, 994, 975, 299, -310, -106, 179, 0, -63, 61, 44, 4, 49, 63, 51, 73, 89, 84, 94, 108, 117, 134, 150, 162, 181, 202, 228, 256, 285, 308, 325, 334, 336, 320, 285, 235, 164, 96, 47, 11, -21, -40, -44, -47, -40, -28, -23, -44]"
1713351416722463290,"[-68, -56, -30, -23, -21, -23, -35, -37, -18, -7, -7, -4, 0, 4, 16, 25, 21, 4, -2, 11, 23, 25, 18, 4, 2, 14, 21, 23, 30, 28, 21, 30, 44, 44, 42, 42, 42, 42, 37, 32, 28, 14, 9, 21, 28, 30, 28, 18, 14, 11, 14, 21, 23, 18, 21, 28, 35, 44, 42, 32, 40, 54, 61, 65, 56, 25, 25, 56, 77, 84, 77, 54, 42]"
1713351417283592669,"[49, 58, 65, 58, 47, 51, 73, 77, 56, 25, 61, 339, 808, 1057, 666, -129, -320, 101, 141, -58, 14, 75, 11, 25, 73, 68, 68, 82, 84, 94, 110, 124, 131, 136, 155, 174, 195, 223, 247, 259, 270, 289, 310, 327, 322, 299, 254, 200, 134, 68, 14, -30, -56, -58, -58, -56, -54, -73, -101, -96, -75, -70, -70, -56, -47, -42, -32, -23, -21, -21, -16, -9, -18]"
1713351417844722052,"[-35, -35, -25, -32, -42, -37, -40, -56, -61, -51, -40, -30, -30, -28, -21, -14, -7, -4, 0, 4, 11, 18, 23, 28, 30, 35, 42, 47, 47, 51, 49, 40, 30, 32, 47, 56, 58, 58, 73, 91, 103, 98, 80, 65, 63, 63, 70, 75, 73, 77, 75, 47, 40, 58, 75, 226, 636, 1027, 916, 195, -332, -51, 207, 7, -40, 77, 56, 28, 73, 80, 70, 89, 106]"
1713351418405851431,"[113, 127, 136, 146, 157, 176, 195, 214, 230, 242, 252, 275, 306, 315, 318, 320, 303, 266, 212, 139, 63, 7, -40, -75, -82, -80, -84, -87, -87, -84, -77, -80, -87, -84, -70, -61, -51, -42, -40, -40, -28, -14, -7, -18, -42, -42, -21, -9, -4, 0, 0, 0, 9, 16, 9, 2, 2, 7, 16, 28, 37, 37, 30, 35, 49, 56, 63, 65, 61, 58, 70, 80, 84]"
1713351418966980810,"[82, 77, 80, 89, 96, 98, 89, 63, 58, 77, 87, 84, 87, 75, 65, 80, 94, 94, 87, 82, 98, 124, 134, 124, 101, 80, 82, 96, 101, 101, 96, 91, 96, 106, 108, 103, 136, 398, 890, 1159, 727, -94, -254, 146, 131, -65, 14, 68, 9, 21, 63, 58, 63, 82, 82, 87, 101, 106, 108, 120, 131, 143, 167, 195, 221, 247, 270, 289, 310, 327, 327, 308, 256]"
1713351419528110189,"[181, 106, 37, -23, -68, -106, -122, -117, -110, -115, -131, -134, -117, -103, -94, -82, -75, -68, -58, -47, -35, -28, -25, -18, -11, -4, 7, 11, -2, -23, -25, -7, 2, 0, 4, 11, 2, -4, 7, 14, 14, 21, 28, 32, 40, 42, 42, 49, 54, 58, 63, 63, 65, 73, 75, 77, 82, 82, 82, 89, 89, 89, 94, 91, 94, 98, 98, 101, 96, 84, 89, 96, 94]"
1713351420089239568,"[94, 96, 98, 106, 106, 101, 108, 113, 106, 103, 89, 68, 70, 75, 75, 77, 82, 82, 82, 87, 84, 65, 91, 362, 841, 1088, 678, -122, -294, 101, 103, -89, -2, 65, 7, 18, 54, 44, 51, 77, 84, 84, 96, 106, 120, 136, 150, 155, 160, 181, 216, 242, 263, 282, 299, 308, 315, 308, 266, 188, 103, 49, 7, -47, -84, -103, -122, -124, -110, -98, -96, -91, -87]"
1713351420650368951,"[-75, -63, -54, -54, -65, -77, -63, -42, -35, -32, -35, -30, -18, -14, -18, -40, -49, -37, -35, -42, -32, -23, -32, -28, -9, 0, 4, 4, 2, 11, 23, 32, 40, 37, 28, 35, 51, 58, 61, 56, 54, 61, 68, 75, 77, 70, 65, 73, 80, 84, 82, 63, 44, 54, 73, 75, 75, 75, 75, 82, 87, 94, 106, 113, 113, 98, 80, 77, 87, 82, 68, 75, 89]"
1713351421211472899,"[96, 91, 87, 82, 124, 372, 817, 1053, 666, -134, -376, 32, 110, -96, -42, 37, -9, -2, 35, 37, 44, 54, 63, 80, 91, 101, 110, 122, 143, 164, 181, 204, 230, 247, 259, 280, 301, 310, 301, 287, 259, 193, 98, 23, -21, -70, -101, -96, -98, -120, -129, -117, -110, -115, -110, -98, -96, -98, -84, -68, -65, -56, -44, -40, -35, -25, -18, -18, -14, -4, 0, 0, -9]"
1713351421772597191,"[-30, -40, -32, -25, -21, -16, -9, -4, -2, 7, 4, -7, 2, 16, 9, 11, 23, 28, 37, 47, 42, 49, 75, 89, 91, 87, 68, 49, 54, 68, 70, 63, 61, 56, 44, 49, 70, 80, 110, 346, 784, 1043, 704, -54, -308, 82, 176, -21, 35, 120, 61, 58, 96, 96, 98, 115, 115, 120, 139, 153, 160, 174, 186, 197, 209, 212, 207, 230, 270, 294, 306, 322, 329]"
1713351422333726570,"[308, 256, 183, 113, 51, -7, -61, -98, -120, -129, -117, -101, -94, -96, -91, -77, -61, -51, -47, -44, -47, -47, -42, -47, -63, -73, -61, -49, -40, -28, -25, -28, -23, -14, -4, 4, 4, -2, 0, 14, 21, 25, 28, 23, 28, 37, 44, 51, 54, 47, 51, 65, 70, 73, 77, 73, 61, 49, 35, 35, 44, 40, 40, 61, 84, 98, 94, 73, 61, 63, 70, 73, 73]"
1713351422894855949,"[68, 73, 84, 91, 96, 89, 89, 230, 645, 1095, 1067, 325, -325, -84, 209, -4, -73, 54, 28, -4, 49, 65, 54, 65, 77, 84, 101, 117, 124, 131, 143, 162, 188, 212, 233, 254, 282, 310, 336, 353, 355, 341, 308, 256, 188, 120, 58, 0, -40, -54, -73, -96, -94, -80, -75, -63, -47, -40, -37, -35, -37, -35, -23, -16, -16, -9, -4, 2, 11, 14, 14, 16, 18]"
1713351423455985328,"[25, 30, 25, 11, 4, -9, -30, -35, -42, -61, -56, -40, -37, -32, -25, -21, -16, -11, -4, 4, 7, 11, 18, 21, 25, 32, 37, 40, 47, 47, 54, 56, 56, 61, 68, 68, 73, 75, 68, 65, 75, 75, 70, 65, 68, 87, 91, 65, 51, 54, 58, 63, 68, 68, 68, 73, 77, 84, 82, 98, 289, 737, 1137, 977, 181, -303, 25, 204, -16, -11, 82, 23, 7]"
1713351424017114707,"[56, 58, 56, 77, 82, 70, 65, 82, 101, 113, 122, 139, 157, 186, 216, 242, 266, 289, 313, 329, 339, 327, 289, 228, 157, 94, 42, -2, -35, -61, -70, -65, -54, -51, -47, -47, -63, -63, -42, -32, -37, -30, -16, -7, -2, -2, -14, -16, -4, 7, 9, 9, 7, 4, 14, 23, 25, 25, 23, 21, 23, 7, -9, -11, -21, -32, -18, -7, -4, -7, -11, -9, 2]"
1713351424578249177,"[11, 16, 7, -16, -16, 4, 11, 14, 16, 14, 18, 32, 40, 40, 40, 37, 42, 51, 58, 61, 51, 40, 49, 61, 63, 68, 68, 56, 35, 32, 58, 82, 80, 65, 54, 49, 56, 58, 54, 54, 63, 73, 77, 80, 77, 73, 153, 475, 947, 1116, 596, -183, -221, 167, 94, -68, 37, 65, 11, 47, 80, 63, 63, 82, 87, 98, 115, 124, 129, 136, 153, 176, 197]"
1713351425139373469,"[214, 235, 263, 292, 315, 329, 334, 332, 310, 263, 202, 120, 28, -30, -61, -77, -84, -89, -94, -91, -101, -115, -98, -84, -82, -68, -58, -56, -56, -61, -54, -44, -40, -28, -21, -23, -16, -4, -4, -2, 4, 4, 4, -4, -23, -30, -32, -44, -42, -30, -30, -23, -14, -18, -18, -9, -9, -2, 4, 7, 16, 23, 18, 21, 28, 28, 32, 40, 40, 42, 51, 51, 54]"
1713351425700502848,"[61, 56, 40, 32, 40, 49, 51, 51, 51, 37, 35, 63, 80, 51, 9, -4, 4, 16, 21, 25, 28, 30, 40, 49, 54, 54, 65, 221, 633, 1034, 925, 195, -343, -68, 195, -2, -49, 68, 44, 14, 61, 73, 65, 80, 89, 96, 113, 129, 134, 141, 157, 179, 200, 221, 245, 266, 292, 318, 339, 355, 362, 339, 292, 233, 169, 98, 25, -44, -77, -84, -89, -89, -80]"
1713351426261632227,"[-77, -77, -63, -51, -51, -73, -122, -148, -129, -108, -98, -91, -91, -84, -65, -49, -40, -37, -42, -32, -14, -7, -4, -2, -7, -14, -16, -7, 7, 0, -4, 7, 21, 28, 32, 32, 28, 37, 49, 54, 56, 58, 56, 63, 73, 77, 80, 77, 68, 73, 91, 96, 91, 91, 87, 94, 106, 96, 82, 84, 103, 117, 117, 101, 82, 73, 75, 84, 89, 91, 94, 77, 54]"
1713351426822761606,"[51, 56, 89, 301, 746, 1100, 874, 80, -322, 30, 160, -61, -28, 75, 28, 14, 44, 30, 28, 58, 70, 70, 80, 94, 108, 127, 143, 155, 171, 193, 212, 233, 259, 282, 299, 310, 318, 313, 278, 216, 146, 77, 23, -14, -44, -65, -82, -94, -101, -113, -115, -103, -94, -89, -77, -68, -63, -58, -47, -42, -32, -23, -18, -16, -16, -40, -44, -25, -18, -18, -9, -2, 0]"
1713351427383890985,"[9, 11, 16, 23, 23, 28, 37, 35, 25, 28, 35, 40, 28, 14, 21, 32, 32, 37, 44, 42, 49, 56, 56, 58, 65, 68, 75, 77, 77, 80, 80, 82, 89, 91, 89, 89, 91, 94, 101, 98, 80, 73, 89, 110, 122, 117, 91, 75, 75, 82, 89, 89, 87, 84, 87, 94, 96, 77, 110, 402, 883, 1097, 638, -150, -254, 146, 110, -63, 37, 82, 16, 35, 61]"
1713351427945020368,"[47, 58, 80, 65, 54, 65, 87, 101, 113, 122, 124, 136, 169, 200, 223, 245, 266, 289, 308, 313, 296, 252, 188, 124, 65, 9, -44, -84, -108, -115, -120, -127, -127, -122, -115, -101, -87, -75, -68, -70, -63, -44, -32, -25, -21, -23, -18, -4, 7, 11, 2, -21, -21, -2, 4, 9, 9, 7, 14, 25, 32, 37, 32, 16, 16, 35, 44, 47, 44, 40, 42, 51, 56]"
1713351428506149747,"[58, 56, 54, 61, 70, 75, 75, 73, 65, 68, 77, 82, 77, 51, 40, 56, 65, 63, 65, 65, 68, 70, 61, 58, 77, 89, 87, 77, 73, 63, 56, 54, 58, 73, 77, 73, 73, 75, 73, 96, 278, 702, 1076, 907, 131, -358, -32, 197, -16, -44, 68, 37, 14, 58, 51, 32, 58, 77, 80, 96, 108, 108, 117, 141, 164, 176, 190, 216, 240, 261, 280, 294, 303]"
1713351429067263869,"[308, 301, 280, 233, 162, 87, 28, -23, -58, -75, -103, -122, -122, -139, -143, -136, -139, -127, -113, -115, -108, -84, -77, -77, -63, -51, -44, -42, -35, -30, -18, -11, -7, -2, 0, -4, -25, -40, -28, -14, -9, 0, 2, 0, 7, 7, 4, 16, 21, 21, 28, 35, 32, 42, 51, 47, 44, 51, 58, 61, 68, 75, 68, 68, 87, 113, 117, 106, 87, 73, 70, 80, 87]"
1713351429628377987,"[82, 77, 77, 80, 75, 70, 70, 84, 270, 704, 1043, 796, 18, -362, 7, 186, -16, -7, 87, 42, 30, 80, 84, 80, 91, 96, 106, 115, 103, 96, 113, 129, 143, 171, 200, 219, 226, 242, 280, 308, 322, 325, 310, 273, 219, 153, 84, 23, -23, -56, -77, -87, -80, -75, -82, -77, -58, -47, -44, -40, -37, -30, -16, -4, 2, 2, -9, -16, -23, -35, -30, -21, -28]"
1713351430189507366,"[-23, -9, -4, -2, -2, -9, -7, 7, 14, 16, 2, -16, -9, 9, 14, 16, 16, 14, 23, 35, 28, 7, -7, 0, 14, 23, 25, 18, 9, 14, 28, 35, 47, 65, 77, 75, 68, 56, 51, 51, 51, 49, 56, 65, 73, 75, 73, 70, 77, 174, 520, 989, 1119, 537, -226, -181, 212, 96, -56, 47, 58, 11, 49, 68, 54, 65, 87, 94, 103, 115, 120, 129, 146]"
1713351430750636745,"[167, 183, 200, 219, 245, 275, 306, 318, 315, 318, 322, 303, 254, 167, 70, 14, -28, -65, -91, -110, -113, -101, -96, -87, -73, -70, -75, -73, -63, -51, -42, -37, -30, -23, -18, -7, 0, 2, 4, 11, 14, 14, 9, 0, -4, -7, -9, -4, -2, -7, -14, -21, -16, -7, -4, -4, 4, 11, 11, 18, 23, 25, 32, 40, 37, 42, 47, 49, 56, 61, 61, 61, 65]"
1713351431311771215,"[68, 75, 82, 80, 82, 84, 77, 82, 87, 58, 14, -2, 7, 18, 25, 25, 30, 35, 42, 54, 54, 58, 188, 579, 1027, 1027, 336, -306, -103, 200, 23, -44, 80, 58, 16, 61, 77, 68, 84, 94, 89, 89, 94, 110, 124, 131, 143, 167, 195, 221, 249, 270, 294, 320, 341, 348, 343, 313, 256, 193, 127, 70, 21, -18, -40, -42, -37, -32, -30, -32, -35, -44, -56]"
1713351431872926025,"[-56, -54, -56, -47, -30, -21, -11, -11, -37, -54, -40, -25, -21, -18, -21, -16, -4, 4, 9, 11, 4, 9, 21, 28, 21, 9, -2, -4, -4, 2, 9, 9, -4, -14, -2, 9, 11, 9, 9, 16, 28, 32, 37, 35, 32, 40, 51, 56, 58, 58, 58, 65, 73, 87, 106, 110, 98, 84, 75, 75, 77, 73, 70, 70, 56, 40, 49, 54, 47, 73, 278, 716, 1079]"
1713351432434055404,"[869, 84, -327, 37, 202, -21, -14, 82, 37, 32, 75, 51, 25, 51, 73, 75, 87, 98, 106, 117, 139, 160, 179, 193, 207, 230, 266, 296, 315, 325, 327, 320, 292, 237, 167, 98, 40, -2, -28, -37, -47, -49, -44, -40, -32, -21, -18, -16, -7, -2, 7, 16, 18, 21, 25, 18, 0, -18, -28, -16, -4, -4, -2, -2, -11, -9, 0, 0, 2, 7, 9, 14, 18]"
1713351432995174613,"[18, 23, 28, 25, 30, 35, 21, 14, 2, -18, -18, -4, -4, -2, -4, -14, -7, 7, 7, 9, 14, 16, 21, 25, 30, 35, 37, 40, 63, 87, 84, 68, 49, 44, 49, 51, 51, 54, 58, 65, 70, 73, 68, 70, 190, 577, 1013, 998, 320, -341, -179, 160, 11, -80, 40, 30, -11, 37, 61, 49, 58, 70, 70, 82, 101, 117, 124, 129, 150, 176, 195, 219, 242]"
1713351433556309079,"[263, 289, 318, 336, 336, 318, 285, 240, 176, 103, 40, -21, -70, -87, -84, -84, -80, -80, -75, -58, -49, -42, -35, -35, -30, -14, -4, -2, 4, 4, 2, 2, 4, 9, 11, 7, 9, 9, 0, 0, 4, -4, -23, -32, -21, -9, -23, -37, -35, -30, -32, -23, -16, -32, -35, -21, -9, 4, 7, 0, 7, 16, 28, 54, 63, 44, 32, 25, 28, 28, 16, 11, 23]"
1713351434117413023,"[40, 44, 42, 42, 44, 65, 209, 591, 980, 895, 202, -369, -139, 183, 30, -51, 58, 58, 23, 61, 75, 63, 75, 96, 106, 124, 129, 124, 131, 146, 155, 176, 202, 223, 237, 249, 270, 299, 313, 310, 301, 273, 221, 148, 70, 9, -35, -58, -70, -77, -77, -73, -68, -54, -42, -37, -32, -23, -18, -11, -7, -16, -16, -2, 4, 9, 23, 28, 30, 32, 37, 44, 42]"
1713351434678542406,"[28, 28, 35, 32, 30, 28, 11, 4, 16, 18, 21, 28, 30, 30, 32, 25, 18, 18, 14, 4, -4, -4, 16, 35, 30, 18, 0, -28, -40, -28, -21, -16, -4, 0, 4, 11, 16, 23, 91, 391, 866, 1086, 612, -195, -289, 134, 106, -80, 18, 75, 16, 28, 49, 30, 42, 73, 77, 82, 98, 110, 122, 143, 160, 171, 193, 219, 247, 280, 306, 325, 339, 348, 348]"
1713351435239671785,"[329, 278, 202, 127, 65, 21, -7, -25, -47, -65, -80, -77, -68, -61, -56, -51, -42, -28, -16, -28, -51, -49, -25, -16, -9, 2, 2, 2, 14, 25, 30, 32, 28, 28, 40, 47, 49, 51, 49, 47, 56, 65, 61, 47, 30, 25, 25, 32, 40, 40, 32, 37, 47, 51, 54, 54, 47, 51, 65, 75, 73, 61, 54, 63, 68, 63, 49, 23, 7, 21, 32, 37, 44]"
1713351435800801164,"[42, 23, 14, 25, 30, 40, 193, 600, 1024, 954, 216, -362, -131, 94, -94, -108, 9, -25, -47, 2, 9, 14, 44, 47, 49, 73, 82, 80, 101, 129, 139, 153, 188, 214, 228, 249, 275, 299, 322, 329, 320, 287, 221, 141, 80, 35, 0, -30, -49, -56, -49, -42, -30, -25, -23, -18, -9, -2, 7, 16, 16, 16, 23, 35, 42, 42, 32, 25, 35, 44, 44, 44, 47]"
1713351436361930543,"[49, 54, 58, 56, 44, 18, 7, 25, 35, 21, 4, 9, 21, 23, 30, 32, 30, 32, 40, 40, 35, 28, 32, 37, 30, 23, 18, 21, 23, 32, 40, 42, 47, 51, 65, 80, 70, 49, 25, 2, 4, 16, 14, 16, 21, 21, 28, 35, 35, 35, 75, 310, 770, 1079, 760, -44, -327, 63, 131, -77, -18, 61, 4, 9, 56, 49, 49, 73, 75, 68, 63, 63, 77]"
1713351436923054839,"[91, 106, 131, 160, 179, 200, 228, 242, 259, 294, 310, 306, 292, 254, 190, 122, 47, -18, -51, -68, -75, -70, -65, -65, -61, -51, -37, -25, -18, -14, -9, -2, 9, 18, 23, 23, 25, 32, 42, 49, 49, 49, 47, 54, 63, 65, 65, 63, 56, 49, 56, 63, 61, 56, 56, 63, 70, 75, 75, 68, 65, 75, 65, 42, 35, 42, 40, 35, 35, 40, 42, 32, 30]"
1713351437484189305,"[42, 49, 51, 44, 21, 7, 18, 23, 23, 37, 32, 9, -9, -21, -18, -11, -18, -14, 0, 7, 11, 14, 11, 16, 75, 346, 805, 1046, 631, -153, -303, 110, 122, -77, -2, 65, 14, 30, 65, 44, 35, 61, 77, 87, 98, 103, 110, 127, 150, 169, 190, 207, 228, 259, 282, 282, 292, 306, 306, 292, 261, 202, 127, 58, 4, -25, -40, -47, -54, -56, -56, -54, -56]"
1713351438045318684,"[-47, -35, -35, -32, -16, -4, -4, -14, -23, -14, 0, 9, 16, 18, 21, 23, 30, 40, 44, 42, 44, 47, 49, 56, 58, 56, 58, 61, 58, 54, 40, 30, 35, 37, 40, 47, 49, 47, 49, 51, 56, 61, 61, 58, 58, 49, 37, 14, -16, -9, 4, -2, 2, 16, 21, 16, 23, 37, 58, 63, 49, 30, 14, 2, 9, 18, 18, 23, 30, 32, 40, 44, 42]"
1713351438606448063,"[98, 369, 817, 1057, 664, -120, -292, 120, 141, -63, 0, 49, 0, 23, 56, 44, 47, 65, 77, 89, 96, 94, 94, 108, 134, 150, 164, 190, 216, 242, 275, 303, 315, 325, 332, 318, 278, 214, 141, 58, -11, -44, -56, -68, -75, -70, -70, -61, -49, -42, -35, -28, -25, -25, -25, -21, -18, -16, -4, 7, 9, 9, 7, 2, 2, 11, 21, 25, 18, 16, 23, 28, 30]"
1713351439167577442,"[32, 30, 25, 30, 32, 25, 18, -9, -37, -25, -7, -11, -21, -32, -37, -21, -7, -2, 2, 0, 2, 18, 37, 54, 58, 49, 32, 28, 32, 37, 40, 35, 16, 2, 11, 30, 32, 30, 73, 294, 716, 1003, 725, -30, -384, -23, 155, -28, -25, 61, 25, 25, 73, 75, 63, 80, 98, 103, 115, 131, 141, 146, 164, 183, 204, 235, 256, 273, 303, 336, 353, 360, 358]"
1713351439728696651,"[341, 306, 242, 160, 75, 9, -32, -51, -58, -61, -73, -91, -87, -63, -51, -47, -37, -35, -35, -23, -7, 4, 7, 4, 4, -4, -11, -2, 2, -9, -16, -4, 7, 9, 7, -2, -14, -11, 2, 7, 4, 9, 14, 21, 23, 11, 4, 4, -2, 0, 14, 16, 14, 14, 21, 32, 56, 65, 56, 37, 23, 25, 35, 37, 37, 40, 42, 42, 35, 32, 37, 58, 230]"
1713351440289805682,"[654, 1048, 907, 141, -360, -42, 193, -21, -58, 49, 21, 0, 47, 54, 42, 63, 80, 61, 49, 65, 84, 96, 117, 136, 157, 176, 190, 209, 237, 266, 287, 301, 306, 299, 270, 209, 139, 70, 14, -21, -44, -58, -65, -65, -58, -44, -37, -32, -25, -21, -11, 0, 7, 9, 11, 18, 28, 37, 32, 18, 16, 28, 35, 40, 44, 44, 44, 44, 51, 58, 58, 56, 54]"
1713351440850935061,"[51, 47, 44, 47, 40, 18, 9, 25, 32, 16, -9, -14, 2, 11, 16, 21, 14, 2, -9, -16, -11, -2, -7, -9, 9, 35, 49, 42, 21, 4, 9, 23, 30, 30, 28, 28, 40, 49, 56, 54, 68, 249, 685, 1069, 897, 124, -336, 0, 195, -23, -32, 63, 18, 2, 56, 63, 58, 75, 80, 82, 103, 120, 129, 139, 146, 162, 190, 214, 237, 261, 280, 306, 334]"
1713351441412064444,"[348, 341, 301, 249, 207, 148, 80, 28, -16, -63, -82, -73, -65, -70, -89, -98, -80, -58, -51, -42, -37, -35, -23, -7, 2, 7, 9, 11, 21, 30, 37, 40, 37, 40, 47, 54, 56, 58, 54, 51, 54, 47, 40, 44, 44, 44, 51, 51, 42, 37, 40, 40, 47, 51, 54, 51, 49, 54, 58, 63, 65, 63, 61, 54, 49, 51, 40, 7, -2, 23, 44, 47, 30]"
1713351441973193823,"[2, -11, -4, 2, 7, 11, 14, 16, 21, 30, 35, 23, 101, 447, 902, 994, 417, -289, -212, 160, 42, -84, 37, 49, -4, 35, 61, 49, 61, 77, 80, 87, 87, 87, 106, 124, 139, 157, 176, 200, 228, 254, 282, 308, 318, 327, 329, 306, 261, 200, 124, 63, 18, -16, -32, -40, -47, -44, -37, -42, -56, -65, -58, -47, -49, -49, -35, -25, -23, -14, -9, -9, 2]"
1713351442534292684,"[14, 11, 7, 9, 21, 30, 30, 30, 21, 7, 11, 21, 21, 23, 25, 25, 32, 44, 44, 42, 42, 47, 51, 37, 16, 11, 16, 18, 28, 35, 42, 54, 65, 70, 65, 54, 40, 30, 30, 32, 28, 23, 11, 0, 9, 18, 25, 87, 346, 772, 975, 560, -197, -367, 25, 61, -129, -56, 18, -25, -16, 16, 9, 16, 42, 56, 63, 68, 84, 108, 124, 136, 155]"
1713351443095422063,"[176, 195, 223, 256, 285, 296, 292, 292, 299, 289, 249, 181, 96, 25, -28, -75, -94, -101, -110, -103, -82, -73, -65, -63, -63, -47, -25, -16, -11, -14, -18, -2, 14, 18, 23, 23, 18, 32, 47, 47, 47, 44, 37, 40, 51, 49, 28, 4, 4, 18, 25, 28, 32, 35, 40, 47, 51, 65, 82, 82, 68, 47, 30, 30, 32, 25, 28, 37, 42, 49, 54, 47, 47]"
1713351443656551442,"[75, 254, 659, 1010, 848, 96, -409, -110, 124, -89, -127, -4, -28, -51, -4, 4, -7, 11, 32, 42, 56, 65, 80, 98, 115, 134, 157, 181, 204, 228, 261, 292, 308, 313, 318, 303, 261, 188, 94, 14, -51, -96, -110, -115, -120, -113, -98, -89, -77, -65, -58, -49, -40, -32, -21, -9, -4, 2, 14, 18, 25, 37, 37, 42, 49, 51, 56, 58, 54, 47, 40, 37, 47]"
1713351444217680821,"[51, 47, 54, 61, 58, 56, 49, 35, 47, 58, 56, 61, 65, 63, 75, 96, 108, 106, 84, 68, 73, 73, 58, 51, 56, 61, 61, 65, 56, 42, 51, 183, 548, 958, 937, 247, -372, -150, 150, -37, -117, -7, -23, -51, -4, 11, -2, 11, 28, 40, 56, 68, 77, 89, 106, 129, 153, 176, 195, 216, 240, 256, 280, 296, 296, 285, 259, 209, 141, 77, 18, -25, -44]"
1713351444778810204,"[-49, -51, -54, -68, -80, -63, -42, -37, -30, -25, -21, -9, 7, 16, 18, 18, 18, 30, 42, 40, 25, 21, 28, 35, 23, 4, 7, 11, 14, 23, 35, 40, 40, 37, 42, 54, 63, 65, 65, 61, 68, 77, 82, 82, 80, 75, 84, 96, 101, 101, 106, 106, 103, 103, 89, 70, 65, 65, 70, 80, 82, 84, 82, 77, 70, 68, 96, 303, 739, 1086, 855, 68, -313]"
1713351445339939583,"[47, 176, -47, -14, 89, 37, 18, 44, 30, 21, 25, 16, 7, 2, 14, 35, 47, 40, 35, 56, 91, 122, 157, 190, 214, 230, 247, 256, 249, 214, 153, 80, 18, -21, -49, -68, -82, -82, -77, -68, -56, -44, -42, -47, -42, -25, -14, -11, -4, 2, 7, 16, 25, 28, 30, 37, 40, 42, 49, 51, 51, 54, 58, 61, 65, 63, 63, 70, 70, 73, 77, 75, 73]"
1713351445901068962,"[77, 68, 56, 58, 63, 63, 68, 68, 68, 61, 42, 47, 61, 56, 58, 65, 65, 77, 77, 54, 40, 42, 44, 49, 56, 56, 58, 61, 65, 70, 73, 91, 270, 687, 1043, 857, 101, -351, -21, 169, -42, -40, 68, 21, 4, 49, 51, 49, 68, 75, 70, 70, 75, 84, 84, 89, 106, 124, 146, 176, 202, 223, 245, 266, 280, 278, 249, 207, 150, 84, 25, -16, -54]"
1713351446462198341,"[-80, -96, -117, -127, -110, -98, -110, -129, -124, -98, -82, -77, -70, -63, -49, -35, -25, -18, -16, -16, -4, 9, 16, 18, 16, 9, 11, 25, 30, 30, 25, 28, 37, 44, 51, 56, 49, 49, 58, 65, 70, 68, 61, 63, 75, 77, 82, 82, 75, 80, 94, 96, 101, 110, 115, 117, 110, 80, 58, 56, 51, 54, 65, 73, 73, 73, 68, 58, 42, 89, 365, 805, 1001]"
1713351447023327720,"[560, -200, -313, 98, 98, -94, -9, 54, 0, 7, 21, 0, 11, 28, 23, 28, 25, 21, 42, 63, 73, 94, 113, 129, 160, 195, 223, 247, 256, 261, 261, 247, 207, 143, 68, 4, -35, -61, -75, -84, -89, -89, -75, -61, -56, -54, -47, -44, -49, -47, -32, -28, -30, -18, 2, 7, 4, 14, 23, 16, -2, -18, -14, -4, -7, -7, 9, 16, 2, 9, 23, 23, 25]"
1713351447584457099,"[42, 42, 32, 40, 47, 51, 61, 61, 68, 82, 63, 37, 32, 28, 14, 14, 21, 30, 40, 42, 40, 42, 47, 94, 346, 784, 998, 572, -188, -332, 75, 113, -65, 4, 68, 16, 23, 61, 54, 32, 30, 40, 42, 32, 49, 75, 84, 98, 117, 136, 167, 200, 221, 233, 233, 235, 254, 256, 228, 174, 103, 37, -11, -54, -87, -106, -106, -98, -87, -80, -77, -89, -96]"
1713351448145586482,"[-77, -54, -49, -49, -51, -56, -42, -18, -14, -14, -9, 0, 11, 23, 25, 23, 25, 32, 40, 47, 49, 44, 42, 49, 58, 65, 68, 68, 68, 68, 61, 73, 94, 87, 58, 49, 58, 65, 63, 58, 56, 65, 75, 80, 80, 75, 56, 98, 391, 866, 1090, 626, -183, -299, 124, 108, -84, 2, 51, 0, 25, 58, 30, 16, 42, 61, 70, 84, 98, 96, 96, 115, 129]"
1713351448706715861,"[139, 160, 183, 209, 240, 266, 278, 280, 263, 233, 186, 120, 51, -18, -80, -101, -98, -101, -98, -96, -101, -101, -94, -77, -63, -63, -58, -44, -30, -18, -9, -7, -4, 9, 21, 28, 32, 30, 23, 9, 0, 14, 21, 11, 16, 28, 35, 40, 44, 40, 42, 51, 54, 44, 37, 37, 42, 49, 58, 68, 70, 68, 65, 77, 101, 120, 115, 91, 75, 73, 80, 84, 80]"
1713351449267845240,"[77, 80, 84, 91, 96, 94, 87, 146, 447, 937, 1147, 631, -197, -278, 136, 87, -91, -2, 30, -23, 2, 40, 25, 30, 51, 54, 63, 82, 87, 91, 106, 101, 89, 108, 131, 146, 164, 197, 226, 242, 247, 242, 219, 162, 82, 7, -44, -77, -103, -117, -115, -108, -106, -96, -82, -75, -65, -54, -47, -35, -23, -18, -9, 0, 0, 9, 21, 21, 25, 30, 32, 40, 49]"
1713351449828974619,"[47, 49, 58, 51, 44, 49, 51, 42, 30, 28, 40, 47, 44, 47, 51, 54, 61, 65, 65, 68, 68, 73, 77, 70, 44, 32, 44, 56, 61, 65, 70, 68, 73, 94, 113, 101, 70, 51, 49, 56, 63, 65, 63, 63, 68, 77, 84, 87, 80, 106, 332, 793, 1126, 843, 32, -313, 65, 171, -42, -2, 80, 18, 21, 68, 65, 63, 77, 75, 70, 84, 96, 89, 89]"
1713351450390103998,"[94, 106, 129, 155, 174, 179, 190, 226, 254, 263, 263, 240, 193, 134, 73, 14, -49, -113, -131, -120, -115, -113, -103, -101, -91, -75, -73, -75, -65, -58, -47, -30, -18, -11, -7, -9, 0, 16, 23, 28, 28, 25, 32, 44, 49, 54, 51, 44, 51, 63, 65, 68, 65, 61, 68, 77, 82, 84, 77, 63, 68, 80, 82, 82, 77, 77, 82, 89, 94, 94, 94, 91, 96]"
1713351450951263899,"[106, 122, 136, 129, 108, 89, 87, 91, 82, 56, 44, 61, 70, 65, 54, 40, 40, 134, 471, 918, 987, 367, -320, -195, 155, 14, -98, 18, 23, -18, 23, 47, 30, 42, 56, 51, 56, 65, 63, 65, 82, 101, 120, 143, 164, 193, 221, 249, 275, 280, 273, 266, 237, 183, 117, 54, 0, -40, -65, -75, -77, -80, -77, -68, -58, -49, -37, -32, -28, -21, -16, -7, 2]"
1713351451512393278,"[0, -11, -18, -11, -4, -16, -32, -28, -23, -35, -32, -16, -14, -9, 0, 0, 4, 11, 14, 18, 25, 30, 32, 32, 44, 56, 56, 58, 80, 94, 77, 65, 65, 63, 42, 35, 54, 58, 56, 58, 58, 49, 49, 73, 266, 720, 1069, 796, -7, -393, -16, 162, -44, -28, 70, 21, 11, 56, 47, 37, 68, 82, 65, 63, 73, 70, 65, 61, 68, 94, 122, 148, 174]"
1713351452073522657,"[193, 214, 233, 235, 233, 228, 188, 110, 21, -54, -101, -117, -127, -136, -143, -134, -113, -101, -94, -84, -82, -75, -54, -37, -32, -28, -21, -14, -2, 14, 21, 14, 0, 0, 18, 28, 30, 30, 25, 28, 40, 51, 56, 58, 56, 58, 77, 98, 108, 96, 68, 56, 63, 68, 68, 68, 61, 65, 75, 63, 44, 40, 37, 110, 433, 907, 1041, 445, -315, -249, 160, 58, -87]"
1713351452634652036,"[25, 42, -9, 30, 61, 47, 51, 68, 77, 94, 110, 113, 98, 91, 110, 129, 141, 164, 190, 214, 240, 263, 268, 254, 230, 195, 139, 70, 11, -35, -73, -96, -96, -89, -84, -82, -77, -70, -56, -40, -32, -28, -23, -14, -2, 9, 18, 21, 25, 30, 40, 42, 23, 2, 2, -2, -4, 9, 16, 14, 18, 25, 30, 40, 44, 44, 44, 51, 58, 68, 73, 73, 77]"
1713351453195781415,"[91, 113, 122, 106, 82, 73, 75, 77, 77, 61, 49, 61, 68, 61, 54, 42, 65, 261, 711, 1114, 918, 89, -346, 30, 193, -35, -14, 89, 37, 25, 61, 49, 44, 63, 75, 80, 87, 98, 106, 115, 134, 155, 171, 193, 207, 204, 207, 228, 237, 233, 223, 209, 164, 96, 25, -30, -70, -96, -103, -110, -110, -106, -96, -89, -73, -63, -56, -49, -40, -30, -18, -9, -7]"
1713351453756936229,"[-2, 4, 11, 21, 18, -2, -21, -23, -11, 0, 2, 4, 7, 9, 18, 28, 30, 32, 35, 40, 49, 56, 58, 56, 56, 63, 73, 80, 80, 75, 80, 98, 122, 129, 110, 82, 65, 54, 40, 44, 54, 44, 42, 56, 68, 70, 68, 82, 273, 725, 1114, 911, 106, -327, 32, 200, -23, 0, 98, 40, 25, 82, 84, 80, 96, 96, 96, 117, 127, 122, 122, 131, 146]"
1713351454318040173,"[160, 183, 214, 235, 249, 275, 299, 310, 306, 270, 200, 136, 82, 25, -21, -63, -98, -110, -110, -110, -103, -103, -106, -94, -75, -65, -56, -54, -70, -89, -89, -75, -63, -65, -61, -47, -30, -21, -23, -25, -18, -7, 2, 7, 11, 9, 9, 21, 35, 37, 37, 35, 37, 47, 56, 58, 61, 54, 51, 54, 54, 49, 51, 51, 51, 63, 87, 103, 89, 65, 54, 58, 68]"
1713351454879169556,"[70, 63, 61, 65, 73, 77, 68, 51, 51, 150, 494, 956, 1057, 459, -273, -197, 193, 82, -51, 58, 63, -7, 9, 28, 21, 30, 51, 63, 73, 87, 101, 113, 129, 143, 162, 183, 207, 235, 261, 280, 287, 294, 292, 280, 252, 193, 122, 61, 7, -32, -61, -91, -101, -94, -94, -94, -87, -91, -98, -101, -87, -73, -70, -63, -51, -47, -42, -35, -28, -21, -14, -14, -9]"
1713351455440298935,"[0, 0, 0, 7, 9, 11, 23, 25, 14, 18, 23, 14, 18, 28, 9, -28, -44, -28, -4, 11, 23, 28, 16, 0, -2, 9, 18, 16, 18, 32, 42, 40, 40, 47, 56, 82, 266, 687, 1041, 841, 75, -365, -18, 183, -28, -32, 80, 42, 25, 73, 73, 61, 82, 98, 108, 124, 127, 129, 150, 171, 188, 209, 228, 245, 275, 308, 318, 313, 313, 308, 287, 242, 169]"
1713351456001428314,"[89, 14, -40, -56, -68, -82, -89, -108, -124, -113, -103, -103, -117, -139, -131, -108, -96, -89, -80, -77, -65, -44, -35, -28, -28, -28, -21, -9, 0, 4, 4, 4, 4, 0, -2, 9, 9, 2, 18, 35, 37, 42, 51, 61, 80, 82, 65, 51, 44, 37, 44, 61, 65, 68, 65, 63, 75, 80, 80, 139, 409, 866, 1112, 685, -134, -292, 131, 141, -49, 40, 101, 40, 40]"
1713351456562557693,"[51, 30, 47, 73, 70, 73, 91, 108, 124, 139, 136, 139, 162, 183, 204, 233, 256, 268, 280, 289, 285, 252, 190, 115, 37, -23, -54, -75, -98, -113, -115, -115, -113, -103, -94, -89, -82, -68, -58, -54, -47, -37, -28, -16, -7, -2, 2, 7, 11, 16, 25, 28, 28, 35, 37, 37, 30, 21, 23, 35, 35, 37, 47, 47, 49, 40, 18, 16, 30, 35, 40, 54, 51]"
1713351457123687072,"[56, 75, 91, 101, 94, 70, 58, 51, 35, 42, 54, 51, 56, 63, 61, 58, 44, 58, 245, 690, 1109, 963, 155, -336, 7, 195, -32, -21, 91, 40, 23, 70, 70, 68, 89, 96, 98, 108, 122, 127, 127, 136, 153, 167, 190, 221, 245, 252, 256, 270, 289, 294, 270, 223, 150, 68, 7, -37, -94, -148, -164, -153, -141, -134, -122, -117, -110, -96, -80, -68, -61, -56, -51]"
1713351457684816451,"[-40, -25, -14, -14, -25, -40, -42, -37, -30, -25, -25, -23, -11, 0, 4, 9, 11, 11, 23, 40, 44, 42, 40, 42, 54, 61, 65, 65, 63, 65, 75, 84, 91, 89, 82, 91, 120, 134, 117, 77, 49, 56, 70, 73, 75, 75, 68, 75, 87, 91, 87, 82, 216, 636, 1067, 968, 209, -322, -25, 200, -7, -25, 89, 47, 16, 65, 80, 70, 89, 94, 70, 63, 82]"
1713351458245945834,"[101, 110, 115, 127, 153, 181, 207, 223, 228, 240, 268, 285, 280, 249, 193, 120, 47, -11, -51, -82, -110, -120, -115, -103, -96, -91, -89, -80, -68, -63, -70, -70, -61, -51, -42, -28, -18, -16, -16, -9, 2, 11, 18, 16, -4, -16, 0, 14, 11, 11, 16, 21, 28, 37, 40, 40, 44, 49, 51, 61, 61, 51, 42, 42, 51, 61, 61, 61, 70, 84, 108, 115, 94]"
1713351458807075213,"[70, 65, 68, 70, 75, 75, 75, 80, 80, 84, 82, 58, 113, 426, 895, 1076, 574, -193, -228, 176, 101, -82, 21, 61, 9, 37, 61, 49, 61, 80, 84, 91, 94, 94, 103, 117, 120, 113, 127, 160, 186, 209, 240, 261, 268, 273, 263, 226, 164, 94, 16, -44, -82, -115, -129, -122, -120, -122, -117, -103, -89, -84, -77, -61, -54, -47, -32, -23, -25, -18, -9, -2, 9]"
1713351459368204592,"[14, 9, 9, 21, 30, 32, 32, 28, 11, 7, 23, 21, 0, 4, 14, 9, 11, 28, 37, 32, 32, 49, 58, 54, 63, 80, 89, 94, 84, 54, 16, 7, 23, 40, 42, 44, 51, 42, 37, 58, 75, 129, 405, 855, 1048, 591, -176, -280, 129, 122, -58, 30, 89, 35, 54, 87, 73, 75, 91, 87, 87, 103, 113, 124, 143, 160, 167, 183, 216, 245, 268, 296, 308]"
1713351459929333971,"[301, 294, 278, 223, 150, 80, 4, -56, -84, -103, -122, -146, -160, -143, -122, -117, -113, -103, -94, -77, -68, -75, -89, -89, -73, -58, -47, -32, -25, -23, -18, -7, 4, 9, 9, 2, -2, 7, 18, 23, 25, 28, 32, 42, 56, 61, 65, 77, 91, 89, 65, 56, 58, 56, 56, 65, 70, 77, 80, 73, 73, 84, 94, 188, 544, 1005, 1069, 412, -303, -164, 197, 49, -61]"
1713351460490458267,"[65, 75, 25, 58, 82, 70, 82, 101, 84, 61, 70, 91, 101, 117, 131, 129, 141, 176, 207, 230, 254, 273, 282, 278, 252, 195, 108, 23, -42, -89, -115, -129, -141, -136, -124, -122, -113, -98, -91, -82, -70, -63, -54, -44, -37, -23, -14, -9, 0, 7, 9, 18, 25, 25, 30, 32, 32, 35, 25, 16, 23, 28, 28, 35, 44, 44, 49, 51, 58, 68, 73, 70, 75]"
1713351461051562211,"[89, 103, 113, 96, 68, 56, 44, 30, 16, 7, 16, 23, 23, 32, 44, 42, 84, 351, 836, 1128, 713, -139, -310, 122, 120, -77, 21, 80, 11, 28, 68, 63, 73, 91, 91, 96, 113, 129, 141, 155, 160, 160, 179, 209, 237, 263, 280, 292, 301, 299, 278, 245, 183, 106, 44, 0, -47, -84, -108, -124, -122, -108, -98, -94, -94, -89, -75, -61, -51, -47, -47, -42, -28]"
1713351461612696681,"[-30, -49, -58, -65, -70, -51, -35, -32, -44, -54, -44, -25, -16, -9, -4, -9, -2, 14, 23, 30, 30, 28, 35, 47, 51, 58, 56, 51, 61, 75, 80, 82, 84, 94, 115, 124, 108, 89, 77, 70, 61, 56, 63, 70, 65, 65, 75, 82, 82, 120, 360, 836, 1166, 817, -23, -275, 127, 160, -47, 35, 106, 40, 42, 82, 77, 80, 80, 58, 58, 82, 96, 106, 113]"
1713351462173831147,"[113, 120, 136, 162, 195, 226, 247, 263, 278, 287, 285, 252, 176, 91, 30, -14, -51, -84, -110, -120, -124, -124, -110, -103, -101, -89, -80, -68, -56, -51, -51, -56, -58, -49, -35, -30, -28, -18, -14, -7, 2, 2, 2, 9, 14, 18, 25, 25, 25, 35, 37, 40, 47, 47, 51, 56, 56, 61, 56, 35, 35, 47, 44, 35, 30, 32, 42, 49, 51, 58, 63, 63, 77]"
1713351462734950352,"[98, 108, 103, 87, 68, 68, 75, 73, 70, 58, 47, 58, 70, 65, 65, 73, 176, 541, 1003, 1057, 417, -270, -136, 188, 32, -63, 54, 49, 9, 54, 73, 56, 70, 87, 87, 87, 91, 98, 110, 122, 141, 164, 186, 207, 230, 259, 285, 306, 315, 313, 287, 221, 139, 65, -14, -84, -117, -127, -134, -131, -124, -124, -120, -106, -89, -80, -70, -65, -58, -47, -32, -21, -16]"
1713351463296079731,"[-16, -14, -2, 9, 16, 16, 2, -11, -2, 14, 18, 21, 23, 18, 14, 21, 32, 32, 25, 28, 42, 49, 56, 56, 49, 49, 58, 68, 73, 73, 68, 70, 82, 87, 89, 89, 87, 91, 98, 103, 115, 127, 127, 108, 68, 32, 28, 30, 25, 32, 44, 51, 58, 58, 54, 58, 75, 195, 563, 991, 987, 327, -287, -89, 207, 18, -63, 63, 54, 14, 56, 65, 47]"
1713351463857209110,"[65, 89, 91, 103, 106, 91, 98, 115, 124, 122, 115, 134, 176, 204, 228, 247, 252, 252, 245, 212, 153, 80, 14, -35, -63, -77, -82, -87, -87, -82, -70, -56, -49, -44, -40, -37, -56, -75, -61, -47, -42, -35, -21, -9, -4, -2, 4, 11, 18, 28, 30, 32, 35, 37, 42, 49, 49, 49, 54, 56, 58, 65, 65, 63, 70, 73, 75, 82, 77, 65, 65, 70, 75]"
1713351464418338489,"[77, 77, 80, 84, 84, 84, 87, 84, 89, 98, 82, 58, 49, 40, 37, 44, 42, 44, 47, 47, 51, 58, 54, 108, 384, 834, 1050, 593, -216, -346, 63, 35, -155, -56, -2, -61, -40, 0, -7, 0, 18, 25, 35, 49, 68, 82, 94, 110, 129, 155, 186, 214, 237, 263, 285, 301, 310, 306, 270, 209, 131, 65, 21, -18, -51, -65, -68, -61, -51, -47, -44, -37, -30]"
1713351464979472959,"[-21, -9, -2, -7, -18, -21, -4, 9, 9, 11, 14, 21, 32, 40, 42, 40, 40, 44, 44, 32, 14, -7, -14, 2, 14, 18, 25, 23, 23, 35, 44, 49, 51, 49, 49, 58, 65, 70, 70, 56, 49, 61, 73, 70, 73, 82, 96, 103, 87, 63, 51, 42, 42, 54, 54, 44, 37, 25, 18, 23, 35, 150, 506, 928, 937, 292, -336, -148, 171, 0, -84, 47, 44]"
1713351465540607425,"[2, 37, 42, 32, 58, 77, 82, 84, 89, 98, 103, 115, 131, 131, 131, 167, 209, 235, 252, 247, 245, 256, 254, 221, 160, 84, 16, -25, -49, -65, -77, -84, -77, -65, -56, -49, -42, -40, -35, -23, -11, -4, -14, -21, -14, 2, 14, 21, 18, 21, 25, 32, 42, 47, 44, 44, 47, 47, 56, 65, 61, 54, 58, 65, 68, 73, 68, 61, 68, 82, 87, 87, 80]"
1713351466101741891,"[54, 40, 63, 82, 68, 32, -2, -16, 0, 11, -7, -21, -9, 2, 0, -2, -9, 2, 146, 532, 911, 798, 94, -419, -143, 136, -30, -75, 32, 9, -14, 30, 40, 16, 23, 47, 56, 65, 84, 98, 110, 131, 153, 169, 197, 230, 256, 282, 303, 313, 320, 322, 294, 242, 179, 106, 42, -4, -37, -47, -51, -58, -56, -49, -47, -51, -51, -42, -32, -30, -23, -28, -47]"
1713351466662856009,"[-37, -18, -14, -9, 7, 16, 14, 7, -4, 2, 18, 18, 18, 23, 23, 30, 40, 42, 44, 44, 44, 54, 63, 63, 51, 40, 47, 65, 84, 98, 91, 68, 56, 58, 68, 70, 68, 63, 63, 61, 61, 68, 63, 58, 153, 492, 951, 1053, 440, -292, -190, 204, 80, -51, 54, 44, -21, 0, 18, 7, 11, 28, 40, 42, 30, 28, 44, 63, 87, 115, 143, 167, 188]"
1713351467223985388,"[219, 252, 275, 289, 287, 261, 221, 164, 96, 37, -21, -77, -98, -89, -91, -103, -108, -101, -87, -73, -61, -47, -42, -40, -30, -14, -2, 4, 7, 9, 18, 28, 35, 40, 35, 32, 40, 51, 54, 56, 51, 47, 54, 65, 68, 68, 58, 44, 42, 54, 63, 61, 58, 58, 65, 73, 63, 40, 30, 40, 51, 73, 94, 94, 70, 51, 51, 61, 65, 63, 61, 63, 70]"
1713351467785114767,"[77, 84, 82, 77, 139, 435, 890, 1050, 523, -256, -285, 122, 58, -103, 0, 35, -21, 9, 47, 35, 40, 58, 54, 51, 65, 63, 61, 80, 98, 115, 143, 167, 190, 221, 247, 268, 287, 292, 268, 221, 164, 101, 37, -16, -49, -68, -82, -82, -80, -96, -101, -82, -73, -63, -51, -42, -35, -23, -18, -9, 0, 2, 11, 21, 21, 25, 32, 32, 40, 42, 30, 23, 28]"
1713351468346244150,"[35, 37, 42, 42, 40, 30, 21, 30, 40, 37, 40, 47, 47, 56, 61, 58, 61, 63, 65, 70, 75, 73, 75, 80, 82, 87, 94, 106, 122, 117, 94, 77, 73, 68, 65, 68, 73, 80, 82, 82, 80, 61, 47, 80, 278, 697, 1034, 801, 30, -339, 25, 164, -54, -28, 75, 25, 18, 58, 51, 49, 73, 65, 44, 44, 49, 51, 70, 94, 108, 120, 141, 174, 207]"
1713351468907373529,"[237, 259, 268, 273, 278, 261, 212, 136, 47, -25, -56, -73, -89, -94, -98, -96, -82, -68, -58, -51, -58, -58, -42, -23, -16, -14, -14, -7, 7, 16, 23, 23, 21, 21, 11, -2, 9, 16, 4, 9, 28, 35, 37, 35, 30, 40, 49, 51, 56, 54, 51, 56, 54, 44, 47, 54, 47, 49, 61, 65, 63, 61, 63, 70, 75, 80, 84, 80, 75, 82, 94, 96, 101]"
1713351469468502908,"[113, 117, 113, 98, 84, 75, 73, 70, 73, 80, 77, 54, 35, 42, 54, 51, 124, 424, 850, 984, 468, -256, -254, 136, 63, -89, 4, 9, -73, -56, -25, -32, -18, 4, 7, 14, 30, 35, 44, 75, 113, 122, 131, 150, 164, 190, 233, 261, 263, 263, 263, 235, 179, 108, 37, -16, -49, -68, -80, -84, -82, -80, -68, -54, -51, -49, -35, -30, -28, -16, -4, -4, 4]"
1713351470029632287,"[11, 14, 21, 16, 11, 25, 28, 23, 23, 11, 11, 21, 18, 21, 28, 28, 35, 42, 42, 40, 30, 16, 21, 30, 25, 28, 37, 42, 49, 49, 51, 63, 77, 89, 82, 47, 25, 37, 40, 28, 25, 21, 21, 32, 35, 32, 42, 47, 65, 259, 673, 996, 770, 21, -369, -21, 155, -47, -47, 35, -14, -30, 14, 18, 16, 35, 32, 21, 30, 51, 70, 87, 103]"
1713351470590756583,"[120, 141, 174, 212, 240, 252, 254, 266, 287, 287, 252, 190, 115, 35, -42, -91, -110, -129, -139, -122, -110, -103, -91, -84, -82, -77, -75, -68, -54, -51, -44, -25, -11, -4, 2, 2, 9, 23, 30, 35, 42, 37, 37, 47, 56, 58, 56, 51, 54, 65, 70, 70, 70, 68, 73, 82, 87, 80, 63, 56, 80, 106, 108, 94, 73, 56, 56, 56, 51, 56, 54, 49, 54]"
1713351471151860527,"[65, 68, 68, 73, 202, 596, 1013, 944, 209, -407, -174, 120, -63, -127, -4, -30, -77, -40, -21, -23, -4, 7, 11, 30, 54, 70, 84, 98, 117, 143, 174, 204, 233, 256, 280, 303, 320, 318, 289, 235, 162, 94, 37, -9, -44, -61, -65, -65, -63, -73, -73, -63, -54, -42, -28, -21, -16, -11, -2, 7, 18, 23, 25, 32, 40, 47, 54, 56, 56, 58, 61, 58, 40]"
1713351471712989910,"[21, 25, 37, 35, 40, 47, 30, 11, 4, 9, 18, 28, 28, 30, 37, 42, 47, 54, 56, 58, 63, 65, 73, 80, 80, 80, 87, 89, 98, 101, 82, 63, 61, 61, 63, 65, 63, 68, 73, 65, 56, 49, 42, 101, 398, 864, 1055, 563, -219, -280, 117, 54, -110, -4, 30, -23, 7, 37, 23, 30, 51, 61, 70, 80, 89, 84, 82, 106, 134, 150, 181, 212, 228]"
1713351472274119289,"[249, 280, 294, 296, 289, 261, 207, 134, 61, -7, -58, -75, -77, -82, -84, -77, -70, -56, -42, -35, -30, -25, -14, -2, 7, 11, 11, 11, 18, 30, 32, 21, 9, 14, 23, 30, 37, 42, 40, 37, 44, 54, 58, 58, 54, 54, 61, 70, 73, 75, 68, 65, 75, 82, 84, 84, 77, 73, 61, 44, 47, 58, 54, 40, 42, 51, 49, 35, 28, 37, 47, 56, 61]"
1713351472835248668,"[56, 56, 75, 96, 98, 82, 58, 47, 47, 44, 40, 35, 9, -14, -2, 14, 11, 14, 80, 369, 831, 1029, 539, -233, -294, 96, 44, -113, -4, 35, -25, -4, 35, 30, 40, 61, 61, 63, 84, 103, 115, 129, 141, 155, 183, 214, 242, 268, 289, 306, 322, 315, 287, 256, 197, 113, 51, 11, -28, -56, -73, -80, -73, -61, -54, -49, -44, -37, -25, -11, -4, 0, 2]"
1713351473396378047,"[9, 18, 28, 32, 32, 35, 37, 44, 51, 44, 28, 21, 25, 18, 14, 21, 21, 21, 28, 35, 42, 42, 42, 47, 51, 56, 61, 61, 63, 65, 68, 73, 77, 77, 80, 82, 82, 84, 87, 73, 65, 73, 70, 51, 28, 18, 21, 25, 30, 40, 47, 47, 47, 61, 70, 70, 61, 30, 7, 9, 14, 14, 18, 18, 25, 30, 32, 37, 37, 44, 188, 581, 982]"
1713351473957507426,"[916, 221, -327, -70, 176, -32, -80, 28, -9, -30, 21, 25, 18, 40, 51, 63, 80, 89, 96, 110, 129, 150, 169, 188, 214, 242, 273, 301, 320, 327, 325, 308, 278, 223, 150, 80, 11, -42, -63, -65, -70, -73, -65, -58, -49, -37, -30, -30, -25, -11, 2, 7, 9, 11, 16, 18, 28, 37, 42, 40, 35, 40, 49, 54, 56, 51, 49, 51, 40, 28, 30, 21, 7]"
1713351474518636805,"[14, 25, 28, 21, 0, -11, 0, 9, 7, 14, 11, 7, 21, 28, 16, 4, -2, -9, -4, 4, 9, 9, 4, 7, 21, 35, 47, 44, 28, 0, -32, -32, -14, -16, -21, -9, 2, 9, 16, 18, 21, 44, 209, 621, 998, 836, 91, -374, -49, 193, 0, -30, 75, 47, 28, 75, 82, 63, 75, 87, 82, 94, 115, 120, 120, 146, 171, 193, 214, 235, 256, 289, 320]"
1713351475079766188,"[341, 348, 334, 310, 275, 219, 141, 54, -21, -56, -65, -75, -77, -73, -75, -73, -56, -44, -51, -61, -54, -47, -56, -65, -54, -42, -49, -51, -35, -21, -18, -16, -11, -7, 2, 14, 11, 7, 11, 21, 23, 23, 18, 14, 14, 2, 2, 14, 9, 2, 0, -7, -9, 4, 14, 11, 11, 28, 51, 63, 51, 32, 25, 28, 32, 37, 37, 40, 49, 54, 56, 63, 63]"
1713351475640895567,"[70, 181, 530, 965, 1022, 402, -285, -155, 204, 58, -77, 23, 35, -4, 23, 23, -2, 14, 44, 51, 63, 82, 96, 108, 131, 153, 169, 195, 221, 249, 282, 310, 325, 334, 339, 327, 292, 228, 148, 80, 25, -21, -51, -65, -68, -68, -61, -51, -40, -32, -28, -23, -14, -4, 7, 11, 14, 18, 25, 35, 47, 49, 47, 49, 54, 56, 51, 42, 40, 42, 44, 47, 51]"
1713351476202024946,"[42, 21, 18, 30, 37, 42, 40, 21, -7, -9, 2, -4, -14, -23, -40, -37, -18, -9, -9, -11, -9, 2, 14, 23, 23, 18, 28, 54, 77, 80, 58, 32, 18, 18, 25, 32, 32, 25, 30, 47, 54, 56, 63, 174, 551, 1015, 1048, 379, -285, -115, 202, 37, -42, 82, 65, 18, 61, 87, 75, 89, 101, 94, 106, 127, 127, 122, 129, 146, 167, 195, 223, 252, 275]"
1713351476763154325,"[278, 278, 303, 318, 301, 261, 197, 129, 70, 21, -28, -75, -96, -89, -80, -75, -68, -65, -58, -47, -32, -21, -9, -11, -23, -16, 2, 9, 9, 11, 16, 25, 32, 40, 37, 35, 37, 44, 51, 56, 47, 35, 30, 37, 40, 42, 42, 42, 42, 49, 56, 54, 54, 54, 54, 47, 32, 16, 14, 9, -2, 4, 14, 11, 4, -9, -30, -21, -4, -4, -2, 11, 14]"
1713351477324283704,"[16, 32, 49, 63, 63, 42, 28, 28, 16, 4, 16, 23, 25, 37, 42, 35, 30, 47, 183, 570, 991, 958, 266, -325, -87, 195, 4, -51, 73, 49, 16, 61, 68, 58, 82, 91, 94, 106, 117, 127, 143, 153, 169, 188, 207, 235, 256, 266, 285, 308, 320, 327, 318, 282, 219, 148, 82, 25, -35, -82, -87, -82, -84, -73, -61, -58, -51, -42, -32, -18, -9, -7, -4]"
1713351477885413085,"[4, 14, 21, 23, 25, 25, 23, 28, 35, 37, 32, 21, 9, 21, 32, 32, 30, 32, 35, 32, 28, 25, 30, 28, 28, 37, 44, 42, 37, 37, 47, 54, 56, 56, 51, 40, 35, 30, 11, 0, 4, 4, 9, 18, 23, 18, 14, 18, 30, 40, 35, 7, -11, 16, 51, 54, 37, 23, 11, 14, 25, 32, 42, 44, 37, 44, 58, 58, 61, 174, 523, 954, 994]"
1713351478446517035,"[360, -299, -146, 190, 40, -56, 68, 68, 0, 11, 35, 40, 54, 70, 73, 73, 89, 113, 131, 143, 150, 162, 190, 221, 249, 278, 296, 306, 318, 313, 299, 275, 223, 143, 75, 28, -11, -44, -65, -73, -63, -54, -44, -44, -65, -77, -56, -35, -30, -28, -23, -18, -7, 4, 11, 16, 16, 21, 32, 42, 35, 25, 25, 25, 23, 21, 23, 18, 14, 23, 30, 32, 32]"
1713351479007641327,"[30, 35, 40, 44, 49, 47, 44, 35, 23, 23, 18, 0, -14, -7, 2, 2, 14, 37, 42, 32, 7, -18, -14, -2, -2, 2, 9, 16, 23, 28, 32, 37, 51, 169, 523, 928, 932, 292, -369, -212, 155, 21, -82, 40, 47, 2, 42, 61, 51, 70, 84, 84, 84, 87, 106, 124, 136, 153, 176, 197, 226, 252, 273, 299, 320, 329, 334, 327, 289, 226, 150, 80, 30]"
1713351479568770706,"[-4, -37, -54, -56, -51, -42, -37, -37, -40, -49, -49, -44, -47, -42, -30, -25, -16, 0, 7, 9, 14, 21, 30, 32, 23, 16, 21, 23, 25, 18, -2, -14, -2, 2, 7, 16, 21, 18, 18, 18, 14, 14, 2, -23, -30, -18, -7, -4, 0, -2, -2, 7, 18, 25, 28, 25, 28, 37, 49, 54, 58, 68, 82, 94, 84, 68, 56, 54, 56, 63, 70, 75, 75]"
1713351480129900085,"[70, 68, 65, 58, 129, 433, 892, 1088, 612, -183, -259, 146, 84, -91, 23, 70, 11, 32, 61, 49, 63, 89, 84, 61, 54, 75, 101, 113, 131, 148, 162, 188, 226, 252, 266, 273, 285, 301, 303, 285, 237, 164, 87, 32, -2, -32, -51, -65, -70, -63, -51, -42, -35, -32, -30, -18, -4, 2, 7, 7, 9, 21, 30, 37, 37, 28, 7, -2, 11, 18, 14, 11, 14]"
1713351480691029464,"[21, 25, 32, 32, 28, 28, 32, 40, 30, 2, -16, -16, -16, -9, -2, -9, -32, -42, -25, -14, -11, -11, -7, -2, 2, 2, -7, -2, 7, 7, 14, 25, 30, 30, 35, 42, 51, 61, 61, 61, 80, 98, 106, 96, 75, 65, 68, 73, 75, 82, 82, 82, 87, 89, 89, 91, 148, 428, 888, 1104, 640, -150, -237, 169, 129, -51, 42, 84, 23, 49, 87, 75, 84]"
1713351481252158843,"[108, 101, 106, 129, 129, 131, 141, 139, 141, 143, 157, 193, 223, 242, 273, 294, 285, 268, 254, 216, 150, 84, 25, -23, -54, -68, -70, -70, -70, -65, -58, -51, -37, -28, -23, -21, -14, -2, 9, 14, 7, -2, -2, 9, 18, 21, 21, 23, 21, 16, 21, 28, 25, 23, 28, 32, 28, 18, 11, 4, 2, 9, 16, 16, 11, 9, 16, 25, 30, 32, 32, 30, 35]"
1713351481813288226,"[44, 40, 16, -14, -25, -14, 0, -4, -14, -16, -7, 4, 16, 25, 32, 30, 32, 58, 82, 91, 77, 54, 42, 54, 63, 68, 70, 65, 65, 77, 84, 84, 82, 136, 431, 904, 1112, 633, -155, -237, 162, 124, -47, 54, 94, 25, 49, 91, 84, 89, 103, 96, 110, 136, 141, 146, 157, 167, 181, 207, 235, 261, 282, 301, 325, 339, 346, 329, 278, 216, 164, 91, 14]"
1713351482374397261,"[-32, -65, -91, -94, -87, -80, -75, -75, -70, -54, -42, -37, -42, -56, -56, -40, -25, -16, -21, -40, -30, -14, -11, -9, -4, -4, -2, 4, 11, 16, 7, -4, -2, 11, 9, -2, -9, -18, -25, -16, -2, -2, -7, -7, -2, 0, 7, 16, 18, 18, 32, 42, 37, 42, 61, 77, 65, 49, 47, 40, 18, 7, 2, -4, 0, 11, 21, 21, 23, 63, 254, 647, 958]"
1713351482935516466,"[760, 40, -369, -30, 183, -11, -21, 84, 49, 23, 51, 47, 44, 63, 77, 89, 94, 106, 124, 139, 155, 164, 171, 195, 230, 256, 285, 306, 320, 341, 341, 310, 268, 204, 124, 61, 11, -35, -61, -65, -73, -68, -54, -51, -47, -42, -35, -21, -11, -14, -11, -9, -18, -40, -47, -44, -49, -49, -30, -14, -18, -21, -14, -9, -2, 7, 14, 14, 14, 14, 14, 11, 7]"
1713351483496656019,"[2, -7, -14, -4, 9, 14, 2, -18, -21, 9, 32, 28, 2, -18, -18, -2, 4, 7, 4, 4, 16, 30, 40, 42, 37, 103, 395, 845, 1041, 591, -193, -306, 124, 136, -49, 30, 87, 28, 47, 89, 82, 82, 91, 96, 101, 98, 87, 87, 98, 124, 155, 176, 193, 221, 256, 273, 275, 315, 353, 313, 268, 247, 190, 101, 30, -16, -54, -56, -32, -37, -51, -44, -44]"
1713351484057775224,"[-44, -23, -9, -9, -23, -37, -21, 0, -2, 2, -4, -21, -11, 9, 23, 23, 7, 9, 42, 49, 40, 51, 51, 37, 49, 63, 58, 47, 35, 35, 44, 49, 49, 54, 56, 42, 32, 40, 42, 18, -2, 9, 23, 25, 40, 37, 11, -7, -9, -2, 7, 9, 4, 9, 16, 23, 28, 32, 32, 68, 296, 751, 1064, 756, -47, -343, 61, 153, -75, -35, 56, 2, 4]"
1713351484618904603,"[54, 51, 47, 65, 75, 80, 96, 98, 89, 103, 127, 146, 169, 195, 219, 249, 280, 306, 327, 334, 329, 308, 256, 186, 115, 54, 4, -44, -73, -70, -63, -80, -96, -84, -70, -63, -51, -42, -35, -23, -16, -9, 0, 4, 9, 18, 23, 30, 32, 35, 42, 47, 49, 51, 51, 54, 61, 63, 54, 42, 37, 42, 49, 51, 54, 54, 56, 61, 65, 70, 68, 68, 73]"
1713351485180033986,"[75, 80, 80, 77, 70, 49, 32, 42, 49, 47, 47, 47, 56, 80, 94, 84, 61, 40, 25, 28, 35, 25, 9, 7, -11, -37, -28, -18, -21, 108, 508, 961, 970, 287, -362, -169, 143, -30, -101, 16, -4, -40, 14, 32, 21, 32, 44, 54, 70, 80, 77, 80, 94, 117, 141, 169, 195, 216, 242, 275, 301, 318, 325, 306, 266, 212, 143, 82, 28, -21, -44, -47, -51]"
1713351485741163365,"[-44, -35, -42, -40, -21, -11, -4, 2, 2, -4, -2, 9, 21, 11, -11, -4, 14, -4, -25, -16, -9, -9, 4, 14, 18, 23, 16, 18, 32, 40, 44, 44, 40, 47, 56, 63, 70, 63, 56, 63, 73, 63, 51, 51, 54, 54, 65, 70, 70, 73, 70, 70, 80, 87, 84, 80, 68, 63, 68, 75, 73, 70, 77, 80, 80, 91, 106, 106, 98, 84, 73, 65, 56]"
1713351486302292744,"[37, 14, 7, 21, 28, 16, 18, 23, 47, 249, 671, 973, 730, -30, -419, -58, 108, -103, -89, 7, -32, -28, 18, 9, 2, 30, 54, 61, 68, 75, 91, 108, 106, 110, 141, 174, 193, 214, 249, 285, 296, 301, 313, 299, 254, 193, 120, 58, 9, -37, -54, -51, -65, -68, -51, -51, -44, -32, -28, -21, -11, -7, 0, 2, 0, 0, 7, 14, 16, 23, 30, 35, 37]"
1713351486863422123,"[35, 40, 42, 23, 9, 21, 25, 16, 4, 0, 9, 21, 21, 21, 25, 30, 40, 47, 42, 32, 25, 28, 37, 30, 14, 18, 37, 56, 68, 65, 47, 30, 32, 37, 40, 30, 21, 14, 9, 14, 28, 30, 30, 106, 409, 836, 970, 464, -261, -278, 122, 87, -63, 30, 63, 2, 16, 49, 47, 56, 73, 77, 84, 103, 117, 129, 143, 148, 143, 155, 193, 221, 240]"
1713351487424546419,"[273, 303, 318, 329, 320, 266, 186, 113, 54, 2, -47, -89, -110, -91, -82, -101, -113, -113, -94, -58, -51, -58, -51, -77, -68, 40, 61, -18, -7, 47, 18, 4, 51, 63, 63, 80, 54, 40, 70, 89, 84, 68, 47, 56, 82, 87, 65, 42, 42, 63, 80, 65, 18, 21, 96, 106, 56, 61, 61, 21, 21, 58, 87, 51, 16, 37, 23, 11, 37, 21, -4, 0, -7]"
1713351487985680885,"[-28, 7, 40, 37, 61, 61, 129, 508, 951, 904, 209, -379, -153, 155, -7, -77, 4, -9, 23, 68, 11, 14, 68, 68, 87, 120, 106, 77, 98, 157, 171, 181, 207, 221, 261, 292, 301, 315, 308, 310, 322, 270, 207, 176, 101, 16, -18, -37, -51, -49, -51, -56, -49, -56, -63, -42, -35, -47, -37, -14, -16, -37, -11, 28, 14, 7, 30, 30, 18, 14, 11, 16, 21]"
1713351488546810264,"[28, 40, 35, 25, 28, 42, 30, 11, 30, 25, 0, 21, 30, 11, 11, 32, 49, 35, 28, 51, 54, 42, 49, 58, 44, 28, 32, 40, 28, 7, 16, 54, 54, 28, 16, 4, 7, 28, 25, 14, 25, 37, 37, 47, 54, 42, 75, 336, 822, 1071, 640, -146, -287, 106, 94, -84, 4, 56, 2, 18, 44, 28, 28, 37, 49, 65, 65, 61, 106, 155, 131, 129, 176]"
1713351489107939643,"[200, 204, 240, 299, 313, 318, 332, 346, 334, 228, 141, 113, 61, -4, -58, -82, -65, -25, -21, -68, -80, -51, -40, -42, -47, -37, 0, 28, 11, 4, 25, 25, 4, 14, 47, 42, 49, 80, 56, 9, 18, 47, 37, 25, 18, 18, 65, 68, 32, 56, 75, 30, -7, 16, 51, 35, 21, 23, 25, 65, 84, 28, 0, 49, 82, 75, 63, 44, 44, 58, 35, 25, 40]"
1713351489669084283,"[54, 70, 68, 51, 58, 56, 25, 30, 49, 35, 32, 30, -14, -7, 32, -2, 4, 174, 492, 885, 968, 379, -278, -148, 162, 9, -77, 42, 56, 21, 42, 37, -2, 25, 65, 42, 54, 82, 80, 106, 141, 136, 136, 148, 186, 237, 252, 254, 275, 303, 301, 294, 299, 254, 148, 70, 37, 7, -35, -65, -68, -58, -35, -18, -37, -37, -21, -18, -21, -4, 28, 30, 4]"
1713351490230218749,"[14, 28, 7, 0, 11, 25, 30, 18, 28, 44, 35, 37, 51, 44, 32, 23, 23, 37, 35, 25, 37, 49, 49, 47, 23, 4, 23, 32, 14, 23, 44, 23, 16, 30, 14, 4, 18, 23, 21, 21, 37, 56, 51, 63, 82, 75, 56, 30, 11, 11, 2, -4, 11, 16, 7, 21, 32, 28, 49, 214, 600, 961, 826, 108, -369, -63, 162, -44, -68, 49, 23, 4, 47]"
1713351490791353215,"[47, 35, 61, 87, 91, 89, 87, 82, 98, 129, 146, 160, 186, 207, 233, 266, 285, 278, 268, 273, 273, 235, 174, 113, 49, -23, -63, -70, -80, -89, -87, -82, -68, -51, -44, -42, -40, -35, -18, 4, 9, 0, 7, 18, 30, 37, 40, 40, 37, 44, 54, 63, 65, 56, 51, 63, 61, 44, 37, 44, 47, 49, 58, 65, 61, 49, 42, 42, 47, 54, 51, 51, 56]"
1713351491352487681,"[63, 65, 68, 68, 65, 68, 63, 40, 23, 9, -23, -37, -23, -16, -14, -11, -21, -23, -11, 32, 245, 666, 973, 702, -82, -388, 21, 131, -89, -42, 56, 7, 4, 49, 40, 35, 65, 87, 91, 94, 103, 120, 141, 157, 174, 190, 209, 233, 249, 268, 292, 306, 308, 310, 303, 261, 190, 120, 56, 7, -18, -35, -47, -51, -51, -42, -30, -25, -23, -16, -9, -4, 9]"
1713351491913617060,"[23, 25, 4, -14, 0, 18, 18, 14, 7, 9, 23, 35, 28, 7, 4, 16, 25, 28, 30, 30, 32, 37, 42, 49, 54, 51, 49, 54, 58, 47, 40, 47, 49, 47, 51, 56, 56, 56, 58, 44, 35, 49, 54, 47, 44, 40, 44, 56, 56, 44, 25, 9, 14, 21, 23, 25, 23, 25, 40, 44, 40, 42, 84, 306, 753, 1057, 737, -73, -360, 37, 117, -106, -56]"
1713351492474746439,"[35, -11, -14, 28, 21, 21, 54, 61, 58, 70, 68, 61, 84, 113, 122, 141, 169, 195, 228, 259, 275, 289, 308, 313, 296, 261, 200, 127, 63, 14, -28, -61, -73, -73, -73, -61, -47, -40, -40, -35, -28, -16, 0, 11, 7, 7, 18, 28, 35, 40, 37, 35, 40, 51, 58, 56, 51, 51, 56, 58, 40, 16, 2, -2, 9, 23, 25, 28, 23, 9, 11, 23, 28]"
1713351493035875818,"[30, 25, 25, 35, 44, 47, 44, 28, 11, 23, 37, 30, 16, 11, 7, 4, 14, 18, 16, 28, 44, 40, 18, 4, -2, -9, -2, 9, 18, 25, 25, 28, 37, 42, 47, 120, 402, 836, 1008, 532, -197, -230, 160, 101, -58, 49, 89, 32, 54, 77, 68, 82, 98, 87, 65, 70, 94, 113, 124, 139, 153, 167, 193, 226, 256, 278, 292, 308, 320, 320, 303, 261, 193]"
1713351493596995027,"[117, 63, 25, -9, -30, -42, -49, -44, -32, -28, -37, -51, -56, -49, -40, -30, -21, -16, -14, 0, 11, 14, 16, 21, 23, 28, 40, 47, 47, 40, 42, 49, 58, 58, 51, 54, 63, 61, 61, 65, 58, 44, 44, 49, 40, 16, -2, 2, 9, 11, 21, 28, 21, 28, 35, 25, 21, 18, 9, 0, 2, 11, 23, 21, 18, 25, 37, 56, 70, 54, 32, 32, 32]"
1713351494158104058,"[28, 37, 42, 28, 16, 25, 35, 23, 16, 141, 518, 925, 904, 256, -343, -148, 176, 21, -61, 56, 47, 2, 54, 80, 56, 63, 91, 103, 106, 117, 131, 141, 148, 162, 188, 200, 204, 226, 242, 235, 247, 273, 273, 256, 240, 202, 127, 58, 16, -28, -63, -70, -73, -77, -75, -68, -58, -44, -37, -32, -23, -16, -7, 2, 7, 11, 9, 4, 0, 7, 16, 16, 18]"
1713351494719233437,"[28, 30, 37, 44, 28, 7, 9, 18, 11, 2, 4, 9, 7, 11, 28, 32, 23, 16, 25, 35, 40, 42, 42, 42, 37, 30, 28, 9, 2, 28, 28, -23, -58, -37, -28, -42, -32, -11, -4, -2, -2, 2, 16, 32, 160, 525, 904, 859, 226, -343, -141, 174, 21, -58, 63, 68, 28, 63, 70, 44, 56, 91, 106, 103, 103, 120, 141, 157, 179, 193, 202, 228, 261]"
1713351495280362820,"[287, 310, 322, 322, 329, 329, 292, 228, 136, 54, 9, -21, -49, -63, -73, -80, -68, -61, -65, -65, -58, -51, -42, -30, -37, -56, -51, -40, -30, -16, -2, -2, -2, 11, 21, 21, 30, 30, 25, 35, 44, 44, 37, 28, 21, 23, 37, 47, 42, 37, 30, 25, 37, 42, 44, 47, 44, 42, 40, 32, 28, 25, 23, 21, 30, 47, 58, 68, 58, 37, 23, 30, 37]"
1713351495841502373,"[32, 37, 42, 44, 49, 54, 56, 56, 77, 287, 732, 1041, 737, -51, -348, 40, 124, -110, -58, 40, -21, -21, 35, 30, 25, 54, 61, 68, 84, 96, 110, 124, 134, 160, 183, 193, 221, 256, 278, 299, 315, 313, 308, 301, 263, 197, 124, 61, 21, -9, -42, -51, -51, -49, -40, -32, -30, -28, -23, -9, 9, 9, 4, 14, 25, 28, 32, 40, 42, 42, 42, 44, 51]"
1713351496402636839,"[40, 25, 30, 37, 37, 47, 51, 42, 28, 11, -4, -16, -21, -21, -18, -16, -9, 4, 9, 4, 4, 14, 23, 30, 30, 30, 32, 32, 28, 23, 21, 9, 0, 4, 14, 21, 30, 42, 54, 54, 37, 28, 23, 18, 23, 37, 42, 44, 49, 49, 49, 58, 89, 278, 695, 1031, 815, 63, -313, 47, 190, -32, -7, 94, 25, 14, 68, 56, 47, 82, 96, 94, 108]"
1713351496963750957,"[115, 122, 139, 139, 127, 148, 174, 190, 223, 261, 282, 285, 275, 275, 278, 252, 190, 115, 47, 0, -28, -47, -63, -84, -89, -68, -54, -51, -40, -35, -37, -23, -7, -2, 2, 11, 11, 16, 30, 37, 35, 37, 42, 42, 49, 58, 58, 51, 51, 58, 61, 65, 65, 58, 49, 42, 40, 49, 42, 25, 28, 37, 40, 42, 44, 40, 42, 44, 37, 14, 2, 14, 18]"
1713351497524880336,"[9, 11, 16, 0, -16, -7, 7, 11, 4, -11, -9, 4, 23, 37, 23, -7, -18, -11, -4, 2, 7, 14, 23, 23, 30, 40, 35, 51, 223, 629, 998, 864, 136, -341, -25, 200, -7, -21, 94, 51, 25, 75, 87, 77, 89, 98, 89, 91, 110, 122, 127, 139, 157, 186, 212, 223, 247, 278, 299, 313, 327, 327, 294, 249, 200, 129, 63, 11, -25, -44, -56, -68, -68]"
1713351498086009715,"[-61, -54, -42, -37, -40, -58, -75, -68, -49, -40, -37, -32, -23, -16, -2, 4, 4, 11, 14, 18, 32, 32, 25, 28, 32, 37, 47, 47, 42, 47, 51, 44, 37, 32, 35, 37, 28, 18, 18, 23, 28, 25, 25, 32, 42, 42, 44, 35, 23, 25, 25, 11, 11, 30, 25, -2, -16, -18, -30, -32, -21, -7, -4, -2, 9, 11, 11, 23, 58, 233, 614, 923, 706]"
1713351498647139098,"[-14, -381, -30, 134, -80, -61, 54, 7, -9, 42, 42, 35, 63, 84, 87, 91, 106, 127, 146, 157, 171, 188, 212, 235, 268, 301, 318, 320, 318, 313, 301, 273, 204, 117, 49, 11, -16, -40, -61, -70, -65, -54, -40, -32, -32, -28, -23, -42, -51, -32, -28, -25, -9, -2, 4, 23, 18, 14, 30, 35, 23, 18, 23, 23, 28, 37, 35, 25, 18, 21, 28, 35, 40]"
1713351499208268477,"[40, 35, 35, 47, 58, 61, 58, 54, 54, 56, 51, 42, 23, 7, 25, 49, 44, 25, 11, -2, -4, 9, 16, 11, 14, 18, 23, 37, 44, 56, 190, 563, 951, 904, 237, -336, -101, 200, 23, -44, 56, 16, -18, 40, 49, 35, 63, 80, 77, 94, 108, 106, 113, 129, 150, 171, 193, 219, 252, 275, 296, 320, 329, 334, 327, 289, 230, 164, 96, 44, 9, -18, -30]"
1713351499769397856,"[-30, -30, -23, -18, -18, -7, 7, 7, 11, 23, 18, 11, 23, 32, 30, 23, 18, 30, 42, 40, 42, 49, 49, 56, 61, 58, 61, 63, 68, 77, 75, 58, 32, 9, 16, 30, 30, 30, 37, 37, 42, 44, 32, 18, 25, 32, 30, 30, 30, 16, 4, 7, 14, 21, 25, 28, 30, 32, 40, 61, 82, 87, 63, 44, 47, 56, 56, 51, 54, 56, 65, 73, 80]"
1713351500330527235,"[75, 68, 136, 452, 914, 1057, 513, -242, -237, 155, 77, -73, 28, 54, 4, 40, 73, 58, 56, 70, 87, 101, 108, 115, 117, 113, 110, 129, 162, 181, 197, 228, 259, 273, 278, 282, 278, 254, 214, 155, 87, 25, -25, -54, -58, -63, -63, -61, -63, -56, -40, -32, -23, -18, -21, -16, -2, 7, 9, 9, 9, 16, 30, 37, 40, 35, 21, 25, 40, 44, 44, 40, 35]"
1713351500891656614,"[37, 47, 40, 28, 21, 18, 21, 32, 37, 25, 7, 2, 11, 21, 23, 25, 23, 0, -28, -35, -25, -32, -37, -35, -35, -37, -35, -30, -32, -25, -16, -7, 2, 7, 4, 9, 18, 32, 51, 63, 61, 44, 32, 35, 37, 37, 37, 40, 44, 54, 56, 51, 44, 63, 221, 610, 982, 864, 146, -353, -56, 179, -25, -54, 63, 28, 2, 51, 56, 44, 63, 75, 75]"
1713351501452785993,"[94, 110, 110, 117, 134, 148, 160, 164, 176, 195, 197, 209, 240, 254, 252, 242, 204, 150, 96, 32, -25, -61, -87, -101, -103, -103, -91, -80, -80, -70, -56, -54, -44, -28, -21, -21, -14, -4, 2, 9, 9, 14, 21, 23, 30, 40, 32, 28, 25, 25, 28, 21, 14, 18, 18, 21, 25, 25, 32, 37, 35, 32, 44, 49, 47, 42, 37, 30, 28, 21, 14, 14, 16]"
1713351502013971326,"[21, 28, 14, -21, -44, -40, -35, -42, -42, -32, -28, -21, -7, 4, 7, 7, 18, 42, 58, 56, 35, 21, 21, 32, 42, 44, 44, 47, 56, 56, 58, 70, 146, 445, 874, 996, 478, -221, -200, 162, 73, -63, 47, 75, 25, 47, 70, 61, 77, 96, 96, 101, 113, 124, 136, 155, 174, 181, 197, 226, 254, 273, 292, 310, 320, 327, 327, 306, 249, 167, 87, 21, -23]"
1713351502575054929,"[-51, -77, -98, -96, -84, -77, -68, -61, -58, -49, -35, -25, -16, -30, -51, -40, -18, -18, -21, -25, -28, -16, -7, -2, 2, 4, -2, 4, 21, 16, -4, -11, 0, -2, -7, -7, -7, -18, -25, -14, -4, -7, 0, 0, -2, 4, 21, 23, 18, 21, 21, 28, 40, 42, 40, 37, 42, 56, 61, 54, 56, 56, 37, 37, 40, 18, 9, 23, 28, 28, 35, 47, 51]"
1713351503136174134,"[44, 44, 63, 87, 214, 579, 954, 878, 216, -329, -103, 183, 21, -37, 75, 58, 23, 63, 77, 68, 80, 77, 61, 80, 115, 120, 122, 148, 164, 176, 202, 226, 247, 278, 299, 313, 327, 334, 322, 294, 245, 176, 106, 44, 2, -28, -51, -58, -54, -51, -47, -40, -47, -68, -89, -80, -63, -63, -58, -37, -28, -32, -21, -4, -4, 0, 11, 9, 0, -4, -7, -9, -11]"
1713351503697303513,"[-14, -11, -4, -4, 2, 9, 4, -4, -16, -16, -2, 0, -14, -21, -9, 2, 7, 14, 16, 18, 23, 35, 47, 51, 51, 56, 65, 87, 108, 106, 77, 54, 58, 77, 77, 75, 77, 77, 80, 89, 96, 98, 127, 329, 744, 1038, 758, -21, -351, 35, 167, -40, -2, 91, 32, 25, 80, 82, 77, 96, 101, 103, 122, 139, 150, 162, 169, 179, 209, 240, 259, 280, 299]"
1713351504258458327,"[318, 341, 351, 339, 303, 245, 176, 115, 61, 9, -32, -63, -77, -70, -63, -56, -47, -51, -44, -25, -16, -9, -4, -7, -9, -2, 4, 7, 2, -2, 9, 21, 25, 30, 32, 16, 9, 23, 18, -9, -28, -35, -35, -28, -30, -32, -32, -30, -25, -14, -2, 0, -4, -2, 7, 18, 25, 28, 23, 28, 42, 47, 47, 54, 68, 82, 84, 65, 37, 28, 30, 35, 40]"
1713351504819592793,"[51, 56, 54, 54, 56, 63, 75, 167, 485, 904, 977, 400, -273, -171, 186, 61, -61, 56, 75, 25, 56, 77, 63, 75, 103, 108, 101, 101, 117, 134, 148, 150, 146, 164, 197, 226, 254, 282, 299, 310, 318, 310, 289, 240, 169, 101, 42, 0, -25, -47, -54, -49, -49, -40, -32, -30, -21, -14, -25, -28, -14, -11, -4, 11, 14, 14, 23, 28, 32, 37, 40, 44, 47]"
1713351505380722172,"[49, 51, 51, 42, 32, 21, 0, 7, 21, 14, 14, 21, 21, 25, 30, 30, 32, 25, 16, 16, 11, 4, 0, -7, -21, -35, -30, -21, -11, 7, 28, 25, 4, -7, -2, 4, 9, 18, 23, 23, 28, 32, 40, 47, 91, 334, 770, 1008, 629, -134, -320, 89, 131, -73, 0, 80, 23, 28, 68, 61, 65, 91, 96, 94, 108, 122, 134, 150, 164, 176, 193, 216, 247]"
1713351505941851551,"[278, 301, 315, 325, 336, 339, 320, 270, 190, 106, 49, 18, -7, -42, -73, -89, -89, -98, -101, -87, -82, -80, -61, -44, -35, -30, -32, -21, 2, 7, 7, 18, 18, 18, 32, 40, 42, 44, 40, 35, 37, 35, 32, 32, 32, 37, 47, 54, 58, 56, 49, 56, 65, 68, 65, 54, 40, 44, 61, 63, 58, 56, 58, 63, 70, 77, 91, 101, 98, 84, 61, 40, 23]"
1713351506502980930,"[0, -14, -4, 7, 7, 9, 11, 4, 14, 115, 435, 831, 834, 202, -402, -212, 129, -23, -122, 0, 7, -28, 14, 30, 16, 35, 56, 63, 77, 89, 91, 96, 106, 122, 146, 169, 190, 216, 252, 280, 292, 306, 315, 301, 270, 223, 153, 84, 32, -9, -37, -44, -49, -51, -49, -44, -30, -18, -18, -16, -7, 0, 4, 4, -7, -2, 9, 11, 16, 28, 32, 30, 37]"
1713351507064110309,"[40, 37, 23, 0, 4, 18, 16, 16, 18, 2, -2, 7, 14, 21, 25, 23, 32, 40, 40, 44, 49, 47, 44, 37, 35, 42, 42, 35, 42, 42, 42, 63, 82, 82, 70, 51, 42, 47, 51, 49, 54, 58, 47, 32, 37, 32, 35, 164, 532, 914, 838, 167, -362, -108, 162, -35, -94, 30, 16, -18, 23, 32, 18, 42, 68, 65, 70, 77, 68, 77, 108, 124, 136]"
1713351507625234605,"[162, 190, 216, 247, 278, 289, 280, 268, 268, 242, 179, 103, 37, -16, -61, -84, -89, -94, -94, -82, -70, -58, -49, -47, -40, -25, -14, -7, -2, 0, 7, 16, 25, 37, 44, 35, 35, 49, 56, 58, 58, 51, 51, 63, 68, 63, 44, 32, 44, 51, 54, 63, 63, 54, 54, 68, 77, 77, 73, 58, 40, 30, 40, 51, 49, 37, 37, 44, 49, 61, 75, 80, 70]"
1713351508186369071,"[56, 44, 47, 47, 35, 21, 25, 32, 21, -2, -23, -23, 30, 270, 697, 916, 530, -202, -353, 56, 94, -103, -37, 42, -7, 0, 44, 32, 28, 56, 70, 77, 87, 96, 103, 122, 136, 136, 153, 179, 197, 228, 261, 282, 299, 299, 294, 282, 240, 169, 101, 40, -18, -73, -94, -89, -94, -96, -82, -68, -61, -56, -47, -32, -30, -23, -9, 0, 2, -4, -7, 4, 16]"
1713351508747498450,"[18, 23, 23, 25, 35, 42, 28, 11, 14, 23, 23, 25, 30, 37, 37, 35, 42, 51, 49, 49, 54, 56, 65, 68, 61, 61, 68, 58, 49, 51, 42, 32, 42, 58, 75, 82, 65, 40, 35, 42, 47, 44, 42, 47, 42, 11, -9, -7, -4, 73, 381, 796, 878, 348, -332, -301, 96, 42, -101, 0, 25, -30, -4, 25, 18, 28, 47, 56, 65, 84, 94, 96, 117]"
1713351509308627829,"[150, 167, 179, 200, 233, 261, 289, 310, 318, 308, 285, 254, 204, 134, 58, 0, -35, -65, -89, -98, -103, -101, -87, -77, -73, -61, -54, -51, -44, -30, -16, -14, -14, -7, 7, 16, 16, 9, -11, -16, -2, 2, 16, 30, 21, 11, 25, 37, 32, 35, 35, 30, 32, 42, 42, 47, 54, 49, 54, 65, 75, 87, 101, 96, 73, 58, 61, 56, 37, 35, 51, 49, 51]"
1713351509869757208,"[61, 51, 49, 70, 169, 499, 911, 937, 336, -332, -254, 108, 14, -129, -30, 4, -30, -4, 11, 2, 21, 42, 47, 58, 73, 80, 96, 120, 136, 148, 143, 148, 190, 237, 266, 282, 292, 289, 275, 242, 188, 108, 23, -35, -63, -75, -82, -84, -87, -82, -65, -51, -44, -37, -35, -28, -16, -4, 4, 9, 11, 16, 28, 35, 40, 49, 51, 47, 54, 68, 73, 68, 65]"
1713351510430886587,"[58, 49, 49, 58, 56, 49, 49, 54, 58, 61, 37, 21, 37, 47, 47, 54, 56, 58, 65, 73, 77, 77, 68, 56, 65, 77, 65, 49, 42, 47, 51, 47, 37, 28, 30, 37, 40, 44, 56, 148, 471, 895, 973, 407, -266, -188, 176, 63, -75, 32, 40, -23, 11, 40, 21, 30, 58, 61, 61, 77, 91, 108, 120, 131, 150, 162, 174, 207, 240, 261, 282, 301, 303]"
1713351510992015966,"[294, 263, 207, 139, 75, 16, -28, -65, -89, -82, -73, -77, -73, -65, -63, -58, -73, -82, -61, -44, -44, -30, -18, -23, -25, -21, -14, -2, 7, 9, 14, 21, 25, 35, 42, 40, 40, 44, 51, 58, 58, 58, 63, 65, 65, 75, 80, 75, 75, 80, 84, 91, 89, 84, 87, 84, 75, 75, 77, 73, 68, 75, 87, 91, 87, 80, 80, 87, 94, 91, 80, 70, 70]"
1713351511553145345,"[80, 96, 115, 110, 68, 25, 32, 42, 14, -2, 4, 7, 2, 2, 0, -14, -28, 73, 428, 855, 907, 315, -339, -216, 127, 0, -101, 11, 9, -32, 14, 40, 32, 42, 51, 58, 77, 94, 106, 113, 120, 139, 164, 188, 209, 235, 256, 268, 280, 301, 315, 306, 273, 223, 167, 98, 42, 2, -35, -51, -47, -42, -40, -42, -40, -25, -11, -4, 0, 2, 2, 16, 30]"
1713351512114274728,"[18, -4, -14, -4, 7, 11, 4, -14, -30, -23, 0, 7, 2, 9, 11, 11, 21, 32, 35, 37, 35, 37, 47, 54, 61, 61, 54, 56, 65, 73, 75, 75, 70, 73, 73, 65, 63, 63, 47, 35, 44, 51, 47, 44, 54, 61, 56, 58, 63, 58, 54, 47, 42, 37, 28, 23, 21, 18, 32, 40, 21, 37, 70, 37, 9, 61, 101, 58, 2, -2, 35, 32, -16]"
1713351512675404107,"[-9, 21, 25, 44, 44, 21, 40, 124, 400, 824, 961, 468, -230, -266, 136, 120, -73, 7, 84, 25, 30, 70, 61, 54, 75, 103, 120, 113, 117, 136, 139, 141, 169, 200, 212, 219, 245, 287, 332, 334, 306, 306, 329, 306, 226, 148, 82, 25, -7, -9, -14, -37, -51, -40, -18, -4, -2, -4, -9, -25, -40, -28, -23, -44, -37, 0, 14, 2, 0, 18, 23, 7, 11]"
1713351513236518229,"[23, 11, 2, 21, 30, 23, 37, 37, 0, -4, 18, 21, 23, 25, 14, 21, 25, 9, 4, 9, -2, -14, 0, 11, 4, 9, 21, 28, 28, 28, 28, 32, 40, 40, 42, 54, 58, 49, 42, 61, 77, 75, 68, 58, 70, 89, 91, 96, 101, 108, 122, 101, 37, 9, 32, 35, 28, 47, 61, 58, 58, 61, 68, 84, 186, 515, 909, 907, 313, -261, -91, 226, 77]"
1713351513797662865,"[-25, 89, 98, 61, 94, 103, 80, 96, 120, 120, 129, 134, 122, 127, 155, 174, 171, 174, 197, 228, 259, 287, 306, 313, 318, 325, 299, 233, 171, 103, 28, -7, -21, -51, -70, -70, -70, -61, -47, -40, -35, -37, -51, -65, -77, -87, -94, -82, -58, -54, -51, -37, -32, -32, -28, -18, -11, -4, 0, 0, 0, 7, 21, 30, 23, 23, 30, 35, 40, 40, 44, 44, 37]"
1713351514358787161,"[58, 75, 58, 44, 51, 56, 56, 61, 68, 73, 73, 70, 75, 84, 68, 49, 56, 63, 61, 68, 68, 70, 77, 80, 87, 89, 87, 103, 120, 122, 113, 91, 77, 82, 82, 56, 25, 21, 35, 42, 44, 54, 84, 252, 636, 947, 737, 40, -313, 25, 193, 0, 7, 98, 61, 54, 89, 89, 89, 103, 110, 106, 103, 113, 122, 127, 131, 139, 155, 181, 207, 228, 249]"
1713351514919952143,"[273, 294, 310, 308, 282, 240, 174, 89, 23, -23, -68, -108, -127, -115, -106, -113, -110, -96, -91, -77, -56, -58, -70, -58, -47, -42, -40, -49, -58, -63, -61, -51, -32, 0, 4, -28, -7, 18, -4, 9, 7, -9, 32, 58, 42, 47, 49, 40, 37, 44, 49, 58, 73, 68, 61, 80, 80, 40, 37, 84, 94, 61, 56, 84, 96, 77, 58, 80, 129, 120, 63, 70, 110]"
1713351515481051006,"[131, 146, 129, 58, 4, 25, 51, 63, 94, 84, 49, 49, 49, 80, 129, 186, 454, 857, 923, 384, -259, -190, 157, 51, -87, 11, 35, -16, 18, 58, 49, 61, 80, 70, 73, 84, 103, 136, 153, 134, 134, 171, 204, 226, 223, 226, 270, 301, 303, 301, 249, 179, 155, 115, 35, -25, -84, -127, -117, -120, -155, -131, -84, -101, -115, -94, -68, -63, -87, -68, -25, -35, -44]"
1713351516042160041,"[-32, -21, -18, -23, 2, 18, -14, -21, 9, 7, -7, -7, -16, -30, -40, -49, -49, -42, -37, -30, -14, 0, -7, -9, 2, 2, 7, 25, 49, 44, 35, 47, 54, 37, 51, 108, 117, 68, 56, 63, 35, 25, 47, 47, 40, 56, 61, 47, 56, 84, 183, 511, 914, 892, 252, -310, -101, 204, 47, -30, 94, 84, 37, 70, 75, 70, 108, 124, 110, 117, 136, 136, 129]"
1713351516603294507,"[134, 157, 183, 200, 219, 249, 270, 282, 275, 249, 245, 259, 235, 179, 117, 54, -4, -42, -68, -87, -94, -91, -87, -75, -65, -61, -54, -44, -32, -25, -37, -54, -56, -44, -32, -21, -14, -11, -7, 0, 9, 18, 18, 21, 21, 14, 11, 11, 2, -9, -9, -4, 2, 7, 11, 9, 7, 11, 23, 32, 35, 30, 28, 21, 21, 40, 63, 68, 51, 35, 35, 42, 47]"
1713351517164428973,"[28, 7, 18, 35, 40, 37, 23, 21, 143, 511, 932, 935, 275, -343, -136, 190, 28, -51, 56, 44, 16, 58, 61, 35, 49, 75, 80, 91, 108, 117, 122, 136, 160, 186, 204, 221, 240, 268, 299, 320, 329, 327, 308, 287, 242, 174, 113, 49, -4, -28, -35, -42, -40, -40, -51, -54, -37, -25, -25, -23, -18, -14, 0, 11, 21, 11, -11, -16, 4, 14, 11, 14, 14]"
1713351517725563439,"[21, 30, 35, 32, 28, 25, 35, 47, 42, 25, 14, 16, 23, 11, -4, -4, -2, -2, 7, 21, 23, 21, 30, 51, 65, 58, 37, 25, 21, 14, 9, 9, 2, -4, 0, 4, 7, 11, 87, 395, 845, 977, 435, -282, -254, 129, 35, -115, 4, 35, -21, 7, 37, 25, 37, 58, 61, 68, 63, 49, 63, 94, 108, 124, 150, 174, 200, 235, 259, 275, 292, 296, 292]"
1713351518286697905,"[275, 226, 160, 91, 21, -32, -73, -106, -110, -98, -96, -89, -77, -70, -56, -44, -40, -32, -23, -18, -2, 9, 7, 14, 23, 23, 25, 35, 35, 35, 35, 37, 44, 47, 44, 49, 49, 37, 40, 44, 44, 47, 49, 51, 61, 65, 63, 68, 73, 77, 70, 47, 40, 70, 84, 70, 56, 47, 42, 37, 40, 54, 63, 54, 51, 54, 47, 42, 101, 384, 841, 1022, 513]"
1713351518847827284,"[-252, -278, 139, 75, -115, -11, 40, -21, -9, 9, -14, -14, 11, 23, 23, 35, 49, 63, 80, 103, 120, 129, 150, 183, 219, 247, 256, 254, 252, 256, 245, 204, 141, 61, 2, -21, -44, -68, -77, -84, -77, -58, -56, -77, -87, -77, -63, -47, -35, -28, -23, -18, -9, 4, 14, 16, 16, 16, 21, 18, 9, 11, 16, 11, 21, 35, 40, 42, 42, 35, 42, 58, 61]"
1713351519408936319,"[58, 61, 58, 65, 77, 82, 89, 103, 108, 98, 77, 68, 63, 32, 16, 42, 49, 42, 49, 42, 30, 44, 91, 318, 763, 1036, 687, -89, -346, 61, 174, -37, 0, 91, 44, 49, 75, 30, 14, 56, 65, 58, 77, 91, 94, 113, 143, 160, 167, 186, 197, 207, 237, 261, 256, 254, 249, 216, 169, 115, 42, -28, -73, -96, -110, -120, -124, -122, -110, -94, -84, -84, -80]"
1713351519970055524,"[-73, -56, -35, -32, -40, -25, -9, -14, -9, -4, -32, -47, -23, -14, -21, -14, -4, -2, 0, 4, 18, 30, 21, 21, 35, 44, 44, 44, 49, 40, 30, 44, 54, 32, 18, 30, 35, 28, 32, 42, 47, 44, 30, 30, 42, 58, 216, 633, 1027, 899, 157, -367, -70, 200, 9, -30, 82, 54, 25, 75, 82, 68, 89, 101, 103, 122, 136, 136, 146, 164, 183, 204, 216]"
1713351520531184903,"[216, 221, 242, 273, 292, 296, 282, 247, 190, 131, 65, 2, -47, -80, -101, -113, -113, -117, -127, -127, -117, -120, -134, -127, -113, -110, -96, -77, -63, -56, -51, -44, -40, -44, -35, -23, -23, -25, -11, -2, 7, 9, 2, 7, 25, 30, 30, 40, 35, 32, 47, 56, 61, 63, 58, 58, 68, 82, 87, 84, 82, 89, 103, 124, 124, 89, 56, 56, 65, 68, 73, 75, 68]"
