time,ecg
1713643332390486000,"[12476, 13078, 13664, 14123, 14558, 15014, 15414, 15783, 16148, 16444, 16700, 17117, 17822, 18563, 18725, 18109, 17709, 18165, 18539, 18488, 18612, 18803, 18831, 18902, 19031, 19109, 19163, 19196, 19214, 19264, 19264, 19264, 19261, 19264, 19264, 19186, 19196, 19217, 19179, 19118, 19069, 19022, 18965, 18892, 18782, 18624, 18450, 18297, 18163, 18031, 17895, 17754, 17617, 17502, 17403, 17291, 17157, 17022, 16893, 16776, 16665, 16533, 16390, 16256, 16126, 16014, 15884, 15698, 15541, 15421, 15273, 15124, 14997]"
1713643332951584861,"[14852, 14704, 14565, 14417, 14283, 14151, 13977, 13822, 13695, 13549, 13412, 13297, 13144, 12949, 12784, 12636, 12476, 12335, 12196, 12053, 11917, 11790, 11686, 11545, 11357, 11213, 11065, 10936, 11091, 11519, 11724, 11164, 10176, 9868, 10143, 10016, 9710, 9682, 9616, 9438, 9348, 9268, 9137, 9043, 8953, 8831, 8732, 8645, 8539, 8450, 8368, 8273, 8196, 8121, 8038, 7977, 7916, 7820, 7702, 7596, 7497, 7366, 7203, 7046, 6905, 6766, 6648, 6552, 6451, 6359, 6279, 6190, 6114]"
1713643333512714240,"[6051, 5973, 5889, 5813, 5740, 5672, 5609, 5538, 5465, 5381, 5284, 5221, 5169, 5101, 5030, 4967, 4880, 4790, 4736, 4687, 4616, 4550, 4496, 4442, 4390, 4339, 4275, 4216, 4169, 4125, 4068, 4014, 3972, 3937, 3897, 3845, 3772, 3690, 3628, 3586, 3541, 3497, 3443, 3386, 3330, 3273, 3226, 3175, 3160, 3405, 3920, 4191, 3640, 2723, 2587, 2928, 2815, 2622, 2702, 2702, 2615, 2605, 2594, 2551, 2532, 2521, 2495, 2464, 2438, 2420, 2410, 2403, 2389]"
1713643334073813101,"[2368, 2356, 2365, 2373, 2368, 2358, 2335, 2295, 2243, 2161, 2060, 1966, 1872, 1787, 1745, 1719, 1691, 1667, 1641, 1622, 1615, 1608, 1594, 1575, 1552, 1540, 1538, 1528, 1514, 1498, 1476, 1465, 1460, 1448, 1432, 1415, 1392, 1378, 1366, 1340, 1314, 1300, 1284, 1270, 1265, 1253, 1239, 1222, 1204, 1197, 1192, 1182, 1168, 1152, 1133, 1126, 1119, 1110, 1098, 1081, 1067, 1060, 1053, 1037, 1011, 992, 983, 973, 961, 943, 924, 900, 867]"
1713643334634942480,"[856, 856, 837, 823, 820, 797, 769, 759, 754, 731, 710, 710, 714, 714, 712, 705, 684, 684, 884, 1399, 1881, 1674, 773, 310, 642, 738, 519, 557, 639, 578, 562, 595, 590, 583, 592, 595, 602, 620, 623, 625, 646, 658, 663, 686, 710, 726, 764, 792, 785, 773, 764, 759, 738, 658, 576, 526, 465, 413, 416, 437, 435, 428, 413, 395, 397, 404, 399, 397, 381, 369, 378, 383, 388]"
1713643335196041341,"[402, 399, 392, 395, 392, 385, 373, 352, 352, 357, 350, 355, 359, 355, 350, 345, 343, 333, 310, 305, 329, 322, 279, 270, 279, 263, 263, 296, 305, 270, 272, 310, 303, 279, 289, 301, 296, 286, 293, 315, 322, 315, 308, 310, 315, 315, 310, 308, 308, 312, 319, 322, 315, 301, 301, 329, 357, 350, 324, 293, 256, 239, 261, 275, 258, 263, 279, 270, 258, 263, 284, 458, 938]"
1713643335757170724,"[1429, 1248, 366, -89, 216, 305, 110, 155, 232, 178, 174, 218, 209, 197, 221, 225, 223, 244, 268, 279, 289, 301, 317, 343, 376, 406, 430, 442, 453, 468, 465, 439, 399, 345, 272, 209, 162, 131, 101, 63, 61, 84, 87, 84, 89, 77, 79, 101, 105, 108, 117, 115, 110, 103, 96, 108, 117, 112, 119, 141, 150, 145, 143, 150, 157, 159, 162, 166, 174, 181, 188, 190, 190]"
1713643336318300103,"[192, 190, 188, 181, 174, 171, 176, 188, 199, 202, 204, 202, 188, 166, 169, 181, 185, 188, 197, 190, 183, 202, 216, 211, 204, 202, 209, 216, 218, 214, 206, 209, 225, 230, 225, 216, 214, 235, 246, 225, 214, 206, 195, 192, 199, 188, 164, 148, 143, 155, 150, 138, 298, 766, 1234, 1081, 239, -235, 87, 216, -7, 16, 119, 77, 70, 115, 112, 96, 108, 129, 138, 143, 155]"
1713643336879398964,"[171, 188, 211, 235, 251, 277, 308, 336, 369, 378, 364, 357, 357, 326, 268, 202, 150, 110, 75, 56, 54, 47, 49, 58, 65, 63, 56, 47, 61, 77, 77, 84, 94, 96, 105, 122, 119, 105, 94, 87, 91, 105, 117, 115, 105, 115, 127, 127, 127, 129, 134, 138, 143, 150, 150, 145, 143, 145, 145, 134, 131, 138, 143, 143, 148, 157, 157, 143, 138, 136, 136, 141, 143]"
1713643337440528343,"[127, 108, 103, 105, 110, 110, 94, 75, 75, 77, 75, 94, 122, 127, 127, 124, 108, 82, 65, 68, 79, 87, 94, 98, 96, 91, 82, 117, 383, 903, 1251, 874, 16, -228, 134, 138, -49, 32, 103, 49, 65, 105, 91, 91, 119, 138, 148, 152, 152, 155, 162, 183, 209, 235, 258, 286, 315, 345, 371, 371, 355, 333, 301, 258, 199, 131, 75, 49, 42, 44, 49, 37, 25]"
1713643338001652639,"[35, 56, 68, 63, 61, 70, 79, 82, 77, 70, 79, 84, 79, 89, 98, 96, 77, 61, 75, 94, 94, 91, 89, 77, 61, 58, 72, 75, 68, 77, 91, 96, 98, 103, 101, 103, 105, 98, 96, 105, 101, 84, 72, 70, 70, 61, 49, 54, 63, 72, 75, 70, 63, 68, 79, 84, 84, 89, 91, 89, 98, 108, 103, 98, 108, 112, 110, 115, 131, 131, 124, 134, 145]"
1713643338562756583,"[145, 138, 122, 101, 98, 115, 122, 96, 72, 82, 101, 101, 82, 127, 432, 973, 1239, 712, -115, -188, 152, 68, -70, 35, 70, 35, 63, 84, 72, 87, 110, 110, 108, 119, 136, 148, 164, 181, 199, 223, 246, 277, 305, 336, 359, 357, 352, 343, 298, 235, 181, 129, 82, 49, 28, 28, 35, 28, 28, 39, 39, 37, 56, 58, 39, 37, 49, 54, 61, 70, 72, 75, 77]"
1713643339123885966,"[84, 91, 94, 91, 82, 70, 68, 77, 84, 70, 37, 30, 56, 72, 70, 70, 65, 56, 61, 65, 63, 68, 61, 39, 39, 42, 32, 32, 35, 35, 42, 51, 54, 49, 51, 61, 68, 72, 77, 75, 72, 82, 94, 96, 96, 96, 96, 103, 110, 115, 112, 110, 110, 115, 117, 110, 103, 98, 103, 127, 155, 159, 136, 115, 108, 112, 117, 119, 117, 108, 110, 127, 131]"
1713643339684984827,"[115, 211, 602, 1100, 1131, 413, -214, -37, 176, -9, -37, 84, 58, 16, 51, 61, 51, 72, 103, 103, 101, 127, 145, 150, 169, 185, 192, 218, 254, 289, 322, 329, 326, 343, 357, 329, 284, 223, 155, 105, 77, 47, 23, 9, 7, 14, 11, 9, 18, 21, 16, 25, 49, 65, 56, 49, 63, 77, 79, 82, 84, 79, 79, 89, 96, 103, 105, 84, 65, 70, 77, 63, 49]"
1713643340246098949,"[49, 49, 61, 65, 49, 32, 21, 9, 18, 30, 21, 4, 4, 14, 23, 28, 28, 32, 44, 49, 49, 56, 63, 65, 70, 79, 79, 87, 98, 115, 129, 124, 108, 94, 94, 101, 98, 82, 77, 91, 98, 91, 89, 112, 308, 780, 1187, 938, 110, -244, 98, 188, -4, 39, 119, 72, 79, 119, 108, 98, 101, 91, 103, 124, 131, 143, 164, 181, 197, 216, 237, 272, 305]"
1713643340807213067,"[329, 350, 359, 355, 341, 298, 230, 157, 77, 18, 2, -11, -35, -39, -32, -25, -21, -16, -9, 7, 14, 14, 21, 35, 44, 47, 51, 56, 49, 44, 54, 56, 58, 65, 70, 68, 68, 70, 70, 75, 84, 84, 82, 82, 82, 89, 91, 82, 70, 68, 75, 77, 63, 30, 2, -2, 4, 11, 18, 18, 7, 11, 37, 54, 44, 28, 11, 9, 18, 30, 37, 39, 39]"
1713643341368342446,"[44, 54, 47, 82, 345, 837, 1145, 747, -84, -279, 101, 89, -94, 0, 63, 16, 30, 58, 47, 47, 61, 72, 82, 87, 98, 122, 138, 162, 188, 202, 228, 268, 301, 324, 336, 338, 333, 317, 275, 209, 138, 75, 35, 14, -2, -25, -54, -63, -47, -35, -30, -30, -42, -37, -18, -7, 0, 14, 16, 14, 28, 39, 47, 54, 56, 49, 58, 70, 72, 75, 75, 70, 77]"
1713643341929441307,"[84, 87, 87, 87, 84, 89, 96, 96, 84, 63, 51, 47, 54, 68, 65, 58, 70, 89, 82, 75, 82, 75, 65, 79, 89, 79, 79, 105, 117, 110, 112, 101, 94, 127, 134, 82, 58, 94, 77, 11, 7, 7, -9, 4, -14, -7, 301, 910, 1230, 649, -228, -254, 117, 4, -138, -23, -18, -49, 35, 42, -16, 14, 63, 49, 44, 84, 98, 96, 117, 143, 159, 176, 199]"
1713643342490570690,"[237, 275, 291, 289, 286, 282, 258, 206, 143, 94, 44, -7, -30, -35, -47, -51, -39, -32, -32, -18, -14, -16, 2, 21, 16, 16, 28, 35, 49, 49, 30, 23, 32, 23, 14, 30, 39, 35, 44, 54, 47, 47, 65, 72, 63, 70, 72, 70, 79, 89, 96, 101, 96, 94, 98, 105, 110, 112, 105, 112, 131, 129, 124, 124, 119, 122, 127, 127, 134, 155, 169, 162, 148]"
1713643343051700069,"[136, 122, 108, 110, 119, 119, 119, 127, 110, 84, 79, 122, 362, 839, 1154, 785, -11, -218, 129, 143, -39, 7, 63, 18, -7, -2, -7, -11, -7, 4, 21, 35, 37, 47, 70, 96, 119, 148, 171, 197, 235, 265, 275, 279, 291, 279, 223, 157, 108, 58, 2, -28, -28, -28, -32, -25, -30, -44, -30, -2, 4, 2, 2, 9, 28, 39, 47, 47, 51, 61, 68, 77, 87]"
1713643343612798930,"[84, 75, 84, 96, 98, 98, 91, 82, 91, 103, 101, 96, 89, 75, 79, 82, 54, 30, 28, 30, 37, 49, 58, 65, 65, 68, 79, 84, 87, 96, 91, 84, 110, 138, 145, 148, 129, 103, 101, 110, 117, 115, 103, 101, 119, 127, 110, 94, 164, 489, 999, 1201, 630, -157, -155, 185, 87, -28, 77, 87, 37, 68, 94, 79, 75, 77, 84, 103, 105, 98, 105, 112, 117]"
1713643344173928309,"[136, 162, 197, 235, 256, 268, 270, 272, 268, 216, 141, 87, 30, -23, -56, -96, -124, -117, -108, -105, -94, -79, -70, -58, -51, -44, -32, -23, -18, -9, 7, 16, 18, 18, 30, 39, 32, 42, 61, 49, 39, 51, 51, 54, 61, 61, 65, 77, 75, 72, 77, 77, 77, 84, 87, 87, 87, 96, 105, 101, 108, 131, 138, 129, 119, 98, 84, 94, 98, 84, 82, 87, 84]"
1713643344735057688,"[84, 70, 37, 68, 324, 813, 1154, 797, -54, -322, 54, 101, -89, -23, 51, 9, 16, 44, 37, 42, 63, 79, 89, 79, 72, 94, 124, 141, 145, 157, 169, 185, 214, 249, 265, 261, 251, 230, 178, 110, 47, -11, -56, -79, -87, -89, -87, -84, -79, -68, -54, -44, -42, -47, -39, -16, -4, 0, 9, 9, 11, 21, 16, 11, 18, 18, 16, 7, -2, 9, 14, 2, 9]"
1713643345296187071,"[23, 35, 47, 37, 9, 11, 32, 37, 39, 44, 39, 44, 58, 63, 68, 61, 56, 77, 89, 79, 79, 68, 56, 65, 77, 82, 98, 112, 108, 98, 98, 91, 82, 75, 75, 84, 91, 89, 96, 96, 82, 68, 169, 569, 1131, 1248, 533, -228, -103, 195, 23, -58, 49, 25, -11, 39, 51, 30, 44, 47, 28, 42, 65, 68, 79, 91, 105, 129, 157, 176, 192, 216, 237]"
1713643345857291019,"[244, 244, 232, 197, 143, 87, 25, -44, -89, -101, -103, -112, -124, -129, -117, -96, -87, -77, -63, -49, -44, -37, -25, -14, -9, -4, 7, 14, 21, 28, 30, 32, 37, 39, 47, 54, 54, 54, 61, 63, 63, 65, 68, 70, 65, 58, 63, 68, 65, 70, 79, 72, 49, 37, 47, 54, 61, 68, 75, 72, 68, 79, 94, 89, 87, 94, 98, 101, 103, 103, 108, 112, 108]"
1713643346418415311,"[110, 117, 110, 94, 89, 94, 101, 103, 101, 98, 87, 79, 91, 96, 91, 94, 98, 98, 108, 108, 108, 115, 112, 108, 127, 152, 159, 152, 138, 124, 115, 98, 89, 91, 87, 70, 58, 54, 42, 18, 47, 326, 870, 1227, 792, -117, -319, 54, 23, -145, -51, -11, -63, -25, 21, 7, 7, 30, 42, 54, 77, 91, 94, 108, 131, 155, 176, 188, 197, 225, 265, 289, 298]"
1713643346979544690,"[301, 291, 256, 206, 152, 96, 44, -9, -39, -37, -32, -37, -32, -28, -25, -14, 2, 14, 21, 14, 18, 35, 44, 47, 58, 56, 37, 39, 54, 58, 58, 58, 58, 65, 75, 87, 84, 58, 39, 56, 70, 68, 68, 63, 68, 82, 84, 84, 82, 79, 89, 94, 96, 108, 101, 91, 103, 105, 89, 82, 84, 87, 91, 96, 101, 101, 98, 94, 89, 84, 89, 91, 82]"
1713643347540663899,"[68, 63, 65, 56, 44, 42, 42, 47, 56, 61, 44, 25, 28, 44, 47, 61, 87, 84, 63, 56, 54, 44, 42, 47, 47, 51, 65, 68, 65, 51, 14, 61, 392, 924, 1178, 679, -134, -218, 129, 56, -87, 14, 44, 0, 35, 65, 49, 58, 75, 68, 68, 82, 94, 108, 127, 150, 174, 192, 216, 246, 275, 303, 322, 329, 331, 319, 277, 218, 157, 96, 49, 21, 0]"
1713643348101772930,"[-11, -11, -11, -11, -2, 7, 14, 18, 16, 9, 16, 28, 35, 23, 11, 23, 35, 32, 35, 44, 51, 47, 23, -7, -7, 0, 4, 16, 11, -2, -4, -7, -14, -4, 2, 0, 2, 7, 7, 14, 4, -11, -4, 4, 9, 18, 28, 23, 25, 35, 42, 47, 49, 49, 51, 56, 63, 70, 70, 63, 68, 82, 87, 84, 89, 87, 82, 87, 96, 98, 98, 94, 89]"
1713643348662902309,"[84, 91, 96, 96, 87, 68, 68, 96, 119, 119, 103, 87, 79, 75, 65, 44, 32, 39, 54, 61, 65, 56, 56, 239, 707, 1150, 992, 178, -286, 18, 152, -54, -39, 47, 0, -2, 47, 49, 49, 70, 70, 72, 96, 110, 122, 136, 141, 152, 185, 216, 242, 268, 286, 305, 322, 329, 326, 298, 239, 178, 124, 63, 9, -23, -49, -63, -58, -61, -68, -72, -82, -77, -63]"
1713643349224031692,"[-51, -44, -44, -47, -37, -21, -11, -35, -75, -79, -54, -42, -37, -25, -28, -30, -16, 0, 9, 7, 0, 11, 16, 4, 9, 23, 18, 14, 30, 47, 47, 47, 51, 51, 56, 70, 75, 70, 70, 77, 82, 87, 87, 89, 91, 94, 98, 108, 105, 101, 103, 105, 108, 110, 103, 96, 98, 98, 103, 105, 108, 105, 103, 108, 117, 115, 112, 117, 119, 115, 122, 141, 152]"
1713643349785130553,"[136, 103, 87, 82, 79, 82, 89, 89, 82, 89, 96, 75, 47, 72, 308, 790, 1140, 801, -25, -275, 82, 108, -70, -4, 58, 14, 21, 58, 63, 63, 77, 87, 91, 105, 117, 124, 141, 157, 174, 199, 225, 249, 279, 303, 317, 324, 317, 305, 275, 218, 157, 108, 61, 16, -7, -18, -28, -28, -25, -21, -18, -25, -23, -14, -21, -44, -58, -44, -42, -54, -44, -30, -23]"
1713643350346259932,"[-21, -16, -14, -14, -14, -14, -11, -18, -28, -30, -21, -7, 7, 7, 0, 7, 21, 32, 37, 37, 32, 37, 56, 72, 70, 61, 58, 72, 84, 87, 89, 87, 84, 94, 103, 101, 96, 79, 68, 82, 103, 108, 98, 94, 101, 110, 110, 112, 122, 131, 143, 155, 145, 127, 115, 105, 101, 101, 87, 79, 84, 77, 84, 89, 124, 399, 910, 1208, 776, -77, -258, 131, 119]"
1713643350907358793,"[-70, 18, 84, 35, 58, 87, 63, 70, 101, 112, 117, 110, 98, 117, 145, 159, 178, 199, 218, 254, 291, 315, 336, 341, 326, 317, 286, 214, 129, 61, 9, -25, -44, -49, -56, -61, -54, -42, -30, -21, -18, -16, -11, -2, 9, 18, 18, 18, 30, 35, 14, -14, -18, -11, -11, -9, -11, -14, -16, -37, -58, -51, -30, -28, -35, -32, -25, -18, -11, -2, 0, 2, 2]"
1713643351468488172,"[9, 18, 25, 30, 30, 30, 37, 47, 42, 23, 21, 32, 35, 42, 54, 54, 54, 56, 58, 63, 72, 84, 87, 65, 51, 58, 61, 56, 61, 70, 77, 79, 75, 75, 82, 188, 590, 1112, 1171, 449, -251, -94, 181, -14, -98, 28, 23, -18, 28, 54, 37, 37, 49, 61, 75, 82, 101, 127, 138, 145, 174, 199, 223, 256, 289, 308, 326, 333, 322, 305, 261, 190, 124]"
1713643352029617555,"[70, 25, 0, -16, -32, -44, -63, -68, -47, -44, -61, -56, -42, -35, -23, -11, -9, -2, 4, 16, 28, 35, 35, 35, 39, 47, 54, 54, 54, 54, 56, 56, 61, 70, 75, 56, 37, 42, 54, 58, 58, 54, 35, 25, 42, 51, 37, 25, 21, 23, 21, 11, 4, 9, 16, 23, 25, 25, 28, 28, 30, 44, 51, 47, 44, 49, 54, 61, 68, 68, 63, 61, 68]"
1713643352590716416,"[75, 75, 72, 68, 63, 61, 51, 42, 44, 42, 42, 54, 65, 70, 70, 56, 47, 124, 451, 978, 1222, 682, -141, -183, 164, 70, -65, 21, 21, -28, 14, 42, 25, 25, 42, 54, 68, 84, 94, 98, 115, 141, 164, 185, 204, 232, 268, 305, 322, 326, 324, 310, 275, 221, 159, 101, 49, 14, -4, -16, -16, -14, -16, -18, -11, -11, -16, -7, -4, -4, 7, 21, 30]"
1713643353151845795,"[35, 30, 30, 42, 54, 61, 58, 51, 51, 58, 70, 65, 44, 28, 35, 49, 51, 51, 54, 42, 18, 9, 30, 37, 23, 21, 30, 35, 37, 44, 47, 51, 54, 44, 39, 49, 49, 44, 37, 28, 30, 25, 16, 18, 25, 23, 23, 32, 35, 35, 35, 42, 51, 51, 51, 51, 39, 28, 37, 49, 49, 51, 56, 68, 70, 70, 89, 112, 112, 103, 94, 77, 72]"
1713643353712975174,"[82, 82, 84, 89, 87, 91, 94, 87, 89, 251, 691, 1145, 997, 150, -333, -25, 101, -94, -61, 30, -14, -18, 28, 35, 35, 51, 63, 68, 77, 101, 119, 127, 138, 157, 178, 206, 237, 265, 289, 308, 324, 329, 326, 310, 261, 192, 127, 68, 14, -14, -28, -37, -39, -30, -18, -21, -21, -11, 0, 11, 16, 18, 23, 25, 37, 49, 56, 51, 51, 63, 68, 68, 70]"
1713643354274094383,"[72, 68, 72, 82, 68, 35, 14, 16, 30, 44, 39, 25, 7, -9, 0, 21, 11, -7, -11, -14, -16, -7, -2, 2, 7, 4, 9, 23, 28, 25, 23, 25, 37, 47, 51, 49, 39, 39, 47, 51, 51, 49, 49, 56, 65, 70, 75, 72, 65, 70, 84, 98, 103, 96, 94, 110, 124, 131, 145, 127, 89, 82, 98, 96, 72, 49, 79, 138, 127, 87, 101, 214, 566]"
1713643354835203414,"[1051, 1093, 381, -261, -77, 152, -16, -44, 65, 35, -7, 23, 37, 37, 56, 68, 65, 75, 94, 108, 124, 136, 148, 162, 188, 221, 258, 282, 301, 310, 301, 296, 291, 244, 169, 117, 75, 23, -9, -25, -37, -39, -30, -23, -18, -16, -11, -7, 4, 16, 21, 18, 23, 30, 30, 28, 28, 30, 30, 28, 16, 2, -14, -32, -51, -54, -39, -35, -30, -28, -25, -16, -7]"
1713643355396332793,"[0, 0, 2, 4, 9, 14, 18, 9, 2, 9, 11, 16, 39, 44, 35, 39, 54, 58, 61, 58, 56, 44, 44, 61, 61, 54, 70, 87, 79, 82, 91, 87, 89, 101, 101, 98, 105, 122, 141, 157, 148, 119, 101, 108, 115, 112, 110, 115, 119, 119, 119, 108, 127, 369, 860, 1197, 830, -28, -284, 89, 110, -77, 2, 70, 11, 25, 75, 68, 70, 89, 98, 105, 115]"
1713643355957436745,"[131, 148, 162, 171, 190, 214, 242, 275, 305, 322, 322, 322, 315, 303, 272, 211, 138, 84, 47, 11, -21, -44, -51, -39, -28, -21, -18, -16, -14, -2, 11, 21, 23, 21, 28, 42, 47, 39, 35, 37, 35, 37, 37, 25, 2, -16, -14, -4, 2, -9, -39, -47, -25, -16, -9, 2, 4, -2, 0, 11, 28, 37, 35, 28, 35, 47, 51, 56, 63, 61, 61, 77, 89]"
1713643356518561037,"[87, 84, 77, 77, 98, 119, 119, 98, 72, 70, 82, 89, 84, 68, 51, 61, 77, 84, 75, 91, 324, 839, 1218, 898, 39, -277, 82, 138, -49, 16, 89, 30, 32, 75, 63, 54, 70, 77, 75, 96, 119, 127, 122, 119, 138, 174, 202, 230, 265, 296, 310, 326, 338, 324, 279, 216, 148, 87, 44, 11, -16, -32, -35, -30, -23, -16, -14, -23, -23, -9, 2, 7, 4]"
1713643357079675159,"[9, 18, 28, 35, 39, 39, 39, 42, 54, 65, 54, 32, 35, 44, 47, 49, 51, 49, 51, 56, 58, 65, 63, 61, 68, 70, 54, 47, 44, 37, 39, 44, 42, 37, 23, 0, -21, -21, -11, -9, -11, -4, 4, 4, 9, 14, 14, 18, 25, 25, 30, 35, 37, 44, 49, 44, 44, 49, 54, 56, 56, 58, 63, 79, 98, 105, 94, 72, 63, 61, 70, 77, 72]"
1713643357640789277,"[72, 82, 82, 79, 72, 89, 310, 813, 1215, 931, 70, -291, 49, 110, -87, -21, 54, -18, -21, 28, 21, 25, 56, 63, 61, 75, 77, 65, 75, 101, 115, 131, 166, 202, 232, 258, 279, 291, 303, 301, 277, 228, 159, 98, 56, 18, -7, -23, -39, -49, -42, -32, -25, -18, -18, -16, -7, 9, 18, 16, 16, 21, 30, 42, 51, 49, 44, 47, 56, 61, 63, 65, 63]"
1713643358201918656,"[61, 65, 75, 75, 65, 44, 35, 42, 37, 39, 44, 37, 37, 49, 56, 61, 61, 44, 39, 42, 23, 7, 4, -2, -7, -2, -2, 2, 2, -7, 0, 16, 21, 21, 21, 16, 23, 32, 42, 44, 30, 21, 35, 47, 51, 54, 51, 51, 61, 70, 70, 72, 77, 79, 79, 91, 117, 131, 122, 103, 94, 94, 94, 91, 87, 87, 94, 101, 105, 101, 87, 112, 369]"
1713643358763017517,"[874, 1222, 846, -18, -256, 108, 108, -77, -7, 35, -16, 9, 42, 7, -9, 23, 39, 39, 61, 79, 84, 98, 117, 136, 164, 192, 218, 242, 270, 293, 308, 305, 284, 258, 214, 152, 96, 49, 4, -21, -35, -37, -35, -32, -28, -23, -18, -9, 2, 7, 7, 14, 25, 32, 37, 39, 44, 49, 51, 56, 61, 58, 58, 51, 39, 47, 56, 51, 54, 63, 61, 54, 47]"
1713643359324146900,"[37, 44, 54, 44, 28, 7, -11, -18, -14, -9, -7, -21, -32, -21, -9, -9, -4, -2, 4, 16, 21, 14, 2, 0, 14, 23, 23, 28, 32, 35, 42, 56, 58, 54, 58, 65, 70, 75, 75, 75, 82, 89, 89, 96, 98, 98, 98, 103, 105, 117, 134, 141, 134, 115, 96, 82, 79, 82, 82, 82, 91, 98, 101, 91, 75, 127, 425, 943, 1225, 769, -75, -235, 117]"
1713643359885255935,"[75, -84, 11, 58, 7, 30, 68, 56, 39, 42, 56, 75, 84, 79, 72, 89, 119, 138, 157, 188, 221, 244, 270, 298, 312, 312, 296, 268, 225, 169, 112, 58, 11, -14, -18, -18, -18, -23, -35, -42, -23, -7, -7, -11, -25, -44, -47, -44, -42, -39, -39, -30, -18, -18, -16, 0, 7, -2, 4, 18, 23, 16, 2, -14, -21, -4, 14, 7, 2, 14, 30, 37, 39]"
1713643360446375140,"[39, 39, 49, 54, 47, 39, 37, 37, 44, 61, 68, 54, 35, 44, 58, 56, 56, 70, 72, 65, 72, 84, 91, 91, 87, 84, 89, 101, 108, 103, 101, 105, 108, 110, 117, 115, 110, 112, 131, 138, 119, 96, 87, 87, 94, 101, 101, 101, 103, 105, 110, 105, 162, 472, 983, 1201, 660, -159, -223, 134, 63, -72, 35, 63, 7, 35, 68, 56, 56, 65, 70, 79, 87]"
1713643361007474001,"[96, 119, 138, 143, 164, 197, 216, 244, 270, 270, 277, 305, 312, 298, 270, 216, 148, 91, 44, 2, -23, -39, -44, -37, -37, -47, -49, -47, -47, -44, -47, -56, -61, -58, -54, -49, -47, -35, -30, -28, -14, -7, -9, -4, 4, 4, 9, 18, 0, -28, -23, 2, 4, 2, 9, 14, 21, 28, 30, 23, 16, 16, 25, 35, 44, 49, 51, 49, 54, 65, 72, 75, 72]"
1713643361568603380,"[70, 72, 82, 89, 89, 82, 65, 58, 72, 84, 89, 101, 110, 112, 101, 82, 79, 84, 75, 65, 75, 87, 84, 77, 75, 77, 188, 571, 1081, 1173, 493, -239, -127, 188, 35, -61, 54, 56, 21, 63, 77, 54, 54, 58, 63, 84, 96, 96, 108, 131, 141, 150, 174, 199, 225, 265, 298, 317, 326, 315, 293, 256, 199, 134, 65, 9, -18, -32, -39, -42, -44, -47, -37]"
1713643362129702241,"[-23, -16, -14, -16, -14, 0, 9, 18, 25, 18, 7, 16, 32, 37, 35, 16, 0, 7, 7, 2, 2, 4, 0, -9, -11, -7, -16, -28, -21, -14, -9, -2, 0, -9, -30, -42, -28, -14, -14, -14, -9, -9, -16, -16, -4, 2, 2, 7, 18, 30, 35, 30, 32, 44, 56, 56, 56, 56, 56, 68, 77, 79, 77, 75, 82, 103, 124, 129, 117, 98, 82, 79, 91]"
1713643362690831624,"[89, 72, 70, 79, 82, 84, 72, 47, 169, 602, 1124, 1161, 418, -268, -94, 159, -18, -63, 51, 25, -2, 39, 54, 49, 61, 70, 65, 54, 61, 77, 87, 101, 115, 119, 138, 176, 206, 235, 265, 284, 296, 298, 277, 244, 195, 127, 68, 28, -7, -30, -39, -42, -37, -32, -30, -18, -9, -9, -4, -2, 7, 23, 28, 23, 23, 21, 23, 37, 39, 37, 47, 49, 49]"
1713643363251940659,"[56, 56, 54, 58, 58, 63, 68, 65, 63, 51, 37, 30, 32, 30, 30, 28, 25, 23, 18, 2, -32, -49, -35, -32, -47, -44, -32, -32, -28, -14, -4, -4, -4, -2, 4, 18, 28, 30, 28, 28, 35, 44, 51, 56, 51, 51, 58, 68, 75, 77, 75, 72, 79, 98, 119, 122, 98, 75, 72, 70, 68, 70, 70, 68, 77, 87, 91, 84, 61, 122, 456, 990, 1244]"
1713643363813059864,"[729, -117, -206, 155, 77, -65, 28, 28, -30, 18, 51, 35, 44, 44, 18, 21, 44, 58, 65, 75, 96, 124, 150, 178, 202, 228, 261, 289, 301, 305, 293, 261, 216, 159, 96, 49, 9, -25, -35, -30, -30, -30, -28, -23, -14, -4, -2, -11, -21, -14, 0, 9, 18, 23, 23, 21, 30, 49, 54, 51, 47, 49, 56, 63, 63, 61, 58, 58, 63, 70, 75, 68, 49]"
1713643364374179073,"[44, 56, 61, 56, 42, 30, 4, -25, -18, -7, -30, -44, -30, -16, -11, -9, -7, -2, 4, 9, 16, 23, 23, 25, 28, 32, 39, 42, 47, 54, 54, 56, 65, 65, 65, 70, 72, 70, 65, 58, 63, 70, 70, 82, 108, 119, 108, 89, 77, 75, 79, 77, 77, 84, 87, 91, 94, 82, 84, 254, 703, 1171, 1070, 263, -275, -2, 166, -35, -30, 61, 9, -11, 11]"
1713643364935288104,"[-9, -11, 14, 32, 42, 49, 56, 58, 58, 79, 103, 122, 150, 176, 202, 235, 263, 277, 286, 286, 270, 237, 183, 112, 51, 9, -16, -30, -44, -63, -72, -61, -49, -42, -35, -30, -23, -21, -16, 4, 18, 11, 14, 23, 30, 28, 18, 16, 18, 21, 21, 16, 9, -2, -14, -9, 4, 7, 0, 0, 0, -4, -4, 7, 7, -25, -47, -23, -4, -7, 0, 2, 4]"
1713643365496386965,"[16, 25, 30, 32, 18, 4, 16, 32, 35, 32, 30, 37, 49, 56, 63, 68, 63, 63, 72, 77, 72, 77, 84, 91, 94, 82, 75, 72, 63, 63, 79, 91, 94, 94, 89, 79, 115, 373, 879, 1215, 846, -2, -258, 110, 143, -39, 18, 79, 37, 54, 94, 79, 65, 77, 96, 108, 115, 110, 96, 101, 129, 150, 166, 195, 218, 251, 293, 322, 331, 329, 317, 289, 244]"
1713643366057516348,"[178, 103, 39, -4, -28, -39, -44, -56, -70, -68, -56, -63, -65, -54, -47, -47, -35, -16, -9, -7, 2, 7, 14, 30, 35, 28, 25, 25, 21, 25, 30, 25, 16, 9, 7, 7, 2, -2, -2, -4, 0, 9, 16, 7, -4, 4, 14, 14, 14, 14, 7, -9, -9, 2, 7, 7, 14, 23, 30, 37, 37, 39, 56, 77, 89, 91, 75, 56, 51, 54, 58, 63, 63]"
1713643366618615209,"[68, 72, 61, 49, 47, 91, 378, 912, 1230, 792, -91, -305, 70, 63, -115, -21, 35, -25, -7, 39, 30, 32, 54, 58, 70, 87, 94, 105, 122, 136, 157, 178, 199, 235, 263, 275, 298, 324, 319, 305, 272, 214, 141, 56, -11, -44, -63, -79, -70, -63, -65, -58, -49, -42, -30, -21, -21, -16, -9, -2, 9, 16, 16, 14, 21, 32, 28, 16, 21, 23, 23, 30, 37]"
1713643367179744588,"[42, 42, 39, 42, 51, 56, 58, 51, 32, 25, 44, 54, 49, 44, 47, 47, 42, 39, 47, 47, 35, 28, 28, 25, 11, 0, -7, 4, 16, 16, 16, 14, 14, 23, 23, 4, -11, -11, 0, 11, 21, 28, 32, 30, 35, 44, 58, 82, 91, 82, 72, 68, 68, 65, 65, 63, 61, 63, 56, 58, 61, 44, 79, 359, 893, 1262, 881, -16, -272, 101, 108, -75, 2]"
1713643367740843449,"[51, -2, 25, 68, 58, 54, 65, 75, 87, 105, 112, 98, 94, 122, 148, 164, 181, 199, 228, 263, 289, 303, 308, 301, 279, 232, 171, 98, 21, -28, -49, -61, -58, -51, -51, -54, -44, -32, -23, -14, -7, -9, -7, 9, 23, 30, 28, 25, 23, 16, 25, 32, 32, 32, 37, 42, 51, 54, 49, 47, 54, 58, 63, 70, 68, 63, 68, 77, 82, 79, 77, 82, 84]"
1713643368301972828,"[82, 87, 89, 87, 82, 72, 65, 56, 25, 7, 14, 11, 0, -2, -9, -9, 0, 4, 4, 7, -7, -23, -11, 0, 0, 4, 11, 14, 16, 23, 37, 47, 42, 47, 61, 79, 94, 94, 75, 54, 32, 32, 47, 49, 44, 56, 68, 65, 61, 49, 124, 477, 1011, 1213, 644, -159, -183, 155, 51, -72, 32, 47, 7, 44, 65, 51, 63, 79, 79, 94, 115, 112, 101]"
1713643368863102211,"[110, 138, 159, 178, 199, 214, 225, 256, 293, 303, 298, 291, 258, 192, 115, 56, 11, -30, -54, -56, -54, -56, -54, -49, -42, -30, -18, -16, -11, -9, -14, -14, 0, 9, 7, 7, 16, 28, 35, 39, 37, 37, 44, 54, 58, 58, 54, 54, 61, 65, 70, 72, 65, 63, 72, 75, 63, 61, 56, 51, 56, 51, 35, 14, -7, -4, 4, 11, 18, 16, 7, 11, 23]"
1713643369424201072,"[28, 30, 25, 9, 2, 7, -7, -16, -7, -4, -4, 11, 21, 25, 25, 25, 35, 44, 49, 56, 54, 47, 58, 79, 94, 87, 63, 44, 51, 61, 65, 68, 65, 65, 77, 89, 82, 82, 239, 674, 1143, 1070, 289, -272, -25, 166, -21, -23, 77, 37, 16, 56, 63, 61, 68, 63, 65, 77, 94, 115, 129, 136, 145, 164, 192, 223, 254, 279, 296, 312, 326, 317, 272]"
1713643369985310107,"[225, 171, 105, 58, 25, -16, -42, -49, -54, -54, -44, -35, -30, -37, -44, -25, -9, -25, -44, -32, -16, -11, 0, 4, -7, -14, -11, 2, 16, 9, -7, -9, -11, -21, -18, -11, -11, -11, -11, -2, 11, 9, 4, 11, 11, -2, -2, 9, 11, 11, 21, 32, 32, 25, 37, 51, 44, 47, 61, 58, 63, 75, 70, 65, 61, 42, 54, 84, 96, 98, 89, 65, 54]"
1713643370546429312,"[65, 72, 72, 72, 65, 61, 68, 77, 63, 70, 303, 820, 1190, 849, -11, -315, 58, 119, -75, -14, 56, 7, 18, 63, 58, 54, 72, 84, 87, 98, 110, 122, 138, 152, 174, 192, 199, 216, 249, 286, 310, 326, 331, 319, 284, 228, 159, 96, 51, 4, -35, -49, -44, -42, -42, -39, -39, -49, -63, -54, -37, -42, -42, -23, -9, -2, 7, 4, -7, -4, 11, 21, 16]"
1713643371107548521,"[11, 18, 28, 35, 42, 35, 9, -7, 4, 7, 2, 4, -2, -7, -2, 0, -9, -21, -28, -23, -11, -4, 2, 0, -9, -4, 4, 0, -7, -2, -4, 0, 16, 23, 23, 25, 25, 35, 58, 77, 84, 68, 42, 39, 49, 49, 54, 56, 47, 44, 32, 23, 23, 25, 171, 630, 1145, 1098, 291, -336, -103, 122, -63, -84, 28, -7, -35, 16, 37, 28, 44, 56, 54]"
1713643371668657552,"[68, 89, 96, 108, 127, 134, 152, 183, 211, 225, 235, 261, 289, 303, 303, 279, 232, 171, 98, 30, -4, -30, -61, -70, -65, -58, -51, -47, -44, -39, -30, -16, -4, -2, 0, 4, 14, 23, 30, 30, 30, 32, 28, 9, 2, 14, 16, 16, 23, 28, 18, 14, 18, 25, 28, 32, 35, 39, 42, 42, 51, 58, 51, 54, 61, 61, 63, 70, 68, 61, 51, 47, 49]"
1713643372229786931,"[56, 54, 39, 30, 25, 16, 4, -9, -14, -16, -25, -21, -9, -14, -9, 4, 4, 9, 16, 18, 25, 30, 30, 35, 42, 47, 49, 56, 68, 87, 101, 94, 79, 70, 56, 37, 16, 21, 39, 47, 44, 35, 16, 11, 155, 590, 1100, 1112, 364, -286, -91, 148, -37, -77, 35, 16, -2, 39, 44, 35, 56, 72, 79, 89, 98, 101, 115, 136, 155, 169, 185, 211, 237]"
1713643372790885796,"[254, 270, 291, 296, 277, 263, 242, 192, 127, 65, 14, -14, -25, -37, -42, -44, -47, -35, -18, -9, -7, -7, -2, 14, 21, 23, 35, 30, 9, 2, 18, 25, 11, 0, 4, 16, 23, 28, 32, 28, 25, 39, 47, 49, 51, 47, 47, 58, 65, 68, 68, 61, 58, 70, 82, 84, 75, 61, 54, 63, 72, 72, 61, 42, 25, 14, 11, 18, 9, 2, 14, 25, 25]"
1713643373352015175,"[28, 28, 23, 28, 39, 49, 51, 42, 35, 49, 58, 58, 54, 42, 30, 39, 56, 77, 91, 84, 54, 25, 18, 11, 2, 4, 11, 23, 35, 42, 42, 28, 39, 249, 733, 1161, 973, 143, -308, 14, 143, -58, -30, 56, 14, 14, 63, 65, 56, 68, 79, 91, 108, 117, 122, 127, 124, 136, 169, 199, 221, 246, 277, 301, 324, 336, 336, 317, 272, 214, 157, 103, 51]"
1713643373913114036,"[18, 0, -9, -7, -7, -9, -4, 2, 9, 14, 2, -9, -11, -28, -39, -30, -23, -18, -11, -4, 7, 16, 14, 21, 30, 28, 35, 47, 39, 25, 25, 30, 35, 37, 25, 18, 16, 7, 11, 18, 14, 18, 25, 23, 25, 30, 21, 9, 18, 30, 25, 25, 39, 47, 49, 51, 56, 61, 61, 70, 82, 79, 77, 84, 87, 96, 122, 136, 127, 105, 94, 94, 96]"
1713643374474212897,"[94, 94, 98, 103, 108, 96, 61, 37, 150, 559, 1065, 1112, 409, -293, -143, 157, 4, -68, 47, 35, 0, 47, 65, 58, 75, 82, 82, 103, 122, 129, 134, 152, 171, 192, 216, 242, 270, 296, 312, 331, 350, 348, 319, 272, 218, 159, 98, 47, 4, -23, -25, -23, -23, -25, -28, -21, -7, 4, 9, 11, 7, 11, 28, 39, 42, 44, 42, 42, 49, 49, 39, 23, 4]"
1713643375035342276,"[-4, 0, 4, 7, 2, -14, -18, -9, -16, -25, -30, -49, -51, -30, -23, -21, -21, -25, -18, -2, 4, 4, 7, 9, 11, 23, 35, 39, 30, 21, 23, 37, 44, 47, 42, 42, 49, 58, 63, 65, 65, 65, 68, 89, 110, 117, 108, 89, 77, 75, 82, 84, 75, 70, 79, 91, 94, 84, 65, 117, 428, 964, 1244, 740, -143, -282, 89, 37, -122, -16, 21, -37, -4]"
1713643375596441137,"[37, 25, 28, 47, 51, 58, 77, 79, 68, 77, 101, 122, 145, 171, 192, 223, 256, 282, 303, 308, 286, 254, 209, 150, 91, 39, -7, -32, -42, -44, -47, -49, -39, -28, -25, -18, -9, -7, -2, 7, 9, 14, 25, 30, 30, 35, 37, 39, 49, 54, 51, 44, 32, 30, 39, 35, 16, -4, -2, 16, 18, 9, 18, 18, 7, 7, 16, 16, 16, 4, 0, 0, -14]"
1713643376157570520,"[-16, -2, 0, -4, -4, -18, -25, -9, 0, -4, -4, -2, -2, 7, 16, 18, 18, 21, 28, 35, 39, 44, 49, 47, 51, 65, 65, 61, 65, 72, 72, 77, 89, 89, 84, 87, 98, 119, 136, 129, 108, 96, 89, 72, 65, 68, 68, 70, 77, 63, 37, 23, 77, 369, 893, 1206, 762, -94, -256, 105, 68, -89, 7, 42, -14, 16, 54, 47, 54, 63, 65, 82, 96]"
1713643376718699899,"[110, 115, 108, 117, 148, 174, 197, 218, 223, 232, 268, 298, 301, 291, 265, 225, 171, 115, 65, 18, -21, -35, -32, -28, -23, -21, -23, -18, -4, 7, 14, 11, 9, 14, 11, 9, 21, 25, 25, 30, 37, 28, 7, 0, 7, 11, 18, 25, 30, 25, 25, 30, 30, 23, 25, 25, 18, 14, 14, 16, 9, -7, -11, 4, 11, 2, -9, -14, -11, -2, 7, 14, 14]"
1713643377279798760,"[16, 23, 28, 32, 42, 49, 39, 35, 47, 58, 56, 39, 32, 42, 54, 56, 58, 56, 58, 70, 77, 77, 82, 84, 77, 70, 84, 110, 112, 89, 70, 68, 70, 79, 75, 51, 49, 61, 65, 63, 61, 141, 486, 994, 1178, 618, -171, -192, 155, 61, -61, 42, 56, 14, 51, 72, 56, 58, 63, 70, 89, 101, 105, 115, 134, 155, 174, 185, 216, 254, 277, 305, 333]"
1713643377840917969,"[343, 350, 345, 308, 254, 188, 117, 68, 28, -21, -42, -32, -35, -37, -32, -32, -39, -37, -23, -18, -21, -11, 11, 18, 14, 23, 30, 4, -18, -7, 2, -2, -7, -11, -9, -14, -21, -16, -14, -14, -4, 2, 4, 2, 4, 16, 28, 23, 4, 2, 14, 18, 23, 35, 37, 37, 42, 49, 61, 65, 61, 61, 63, 75, 84, 79, 82, 91, 91, 87, 98, 117, 124]"
1713643378402027000,"[127, 124, 112, 96, 94, 87, 63, 47, 49, 61, 65, 61, 58, 61, 174, 580, 1103, 1157, 435, -284, -152, 136, -23, -98, 14, 14, -9, 35, 49, 28, 44, 70, 72, 84, 103, 108, 115, 138, 157, 166, 178, 202, 235, 275, 308, 329, 336, 326, 310, 275, 221, 157, 84, 21, -11, -23, -32, -37, -37, -39, -35, -21, -2, -2, -11, -9, 4, 21, 25, 28, 35, 28, 23]"
1713643378963156379,"[35, 44, 47, 42, 42, 44, 39, 32, 35, 35, 28, 18, 9, -9, -51, -79, -75, -63, -58, -44, -35, -42, -39, -21, -11, -9, -7, -4, 0, 9, 4, -2, 2, 7, 9, 21, 32, 32, 32, 35, 44, 54, 58, 63, 79, 101, 105, 96, 84, 72, 68, 70, 75, 75, 82, 89, 89, 89, 82, 72, 202, 644, 1180, 1208, 437, -272, -94, 174, -18, -68, 58, 35, 0]"
1713643379524260331,"[47, 61, 47, 56, 75, 82, 77, 65, 77, 98, 108, 117, 127, 143, 174, 206, 242, 272, 289, 301, 303, 277, 228, 174, 115, 51, 2, -32, -47, -54, -58, -56, -49, -47, -39, -32, -23, -16, -11, -4, 4, 4, 7, 23, 28, 25, 35, 37, 37, 47, 51, 49, 47, 44, 42, 47, 49, 47, 47, 47, 51, 61, 63, 58, 58, 61, 63, 70, 75, 70, 63, 54, 30]"
1713643380085384623,"[9, 14, 21, 14, 2, 2, 4, -9, -18, -30, -44, -37, -32, -44, -47, -37, -30, -21, -14, -7, -4, -2, 4, 18, 23, 23, 25, 30, 37, 44, 51, 51, 51, 58, 63, 70, 75, 79, 89, 103, 112, 108, 94, 82, 65, 56, 65, 75, 77, 77, 70, 72, 75, 89, 312, 832, 1265, 1018, 143, -272, 58, 138, -75, -25, 58, -11, -28, 16, 9, 9, 47, 56, 58]"
1713643380646514002,"[70, 75, 84, 98, 103, 115, 136, 152, 178, 221, 254, 275, 275, 265, 275, 275, 235, 183, 117, 51, 14, -7, -25, -35, -42, -44, -35, -23, -16, -9, -9, -7, 9, 18, 21, 21, 16, 14, 25, 37, 42, 47, 42, 39, 47, 58, 61, 61, 61, 56, 58, 70, 77, 70, 63, 65, 70, 68, 44, 25, 25, 23, 21, 32, 42, 28, 11, -2, -16, -18, -11, -14, -16]"
1713643381207612863,"[-9, 0, 4, 7, 9, 9, 11, 23, 30, 18, 4, 7, 16, 21, 28, 35, 32, 37, 44, 49, 54, 58, 58, 61, 63, 68, 72, 65, 65, 77, 77, 79, 101, 117, 119, 112, 94, 84, 82, 82, 89, 89, 87, 91, 96, 94, 84, 91, 272, 747, 1220, 1072, 211, -310, -9, 138, -65, -44, 44, -16, -30, 21, 21, 16, 49, 61, 56, 70, 84, 91, 105, 127, 143]"
1713643381768742242,"[157, 178, 209, 239, 268, 289, 301, 293, 289, 289, 254, 192, 131, 72, 28, 2, -14, -39, -65, -68, -49, -39, -37, -30, -28, -28, -14, 2, 7, 9, 16, 18, 25, 28, 18, 14, 21, 23, 16, 11, 7, -2, -18, -37, -44, -35, -32, -37, -37, -35, -35, -30, -25, -28, -23, -11, 0, 7, 11, 9, 14, 25, 35, 39, 44, 42, 42, 49, 61, 70, 70, 61, 63]"
1713643382329841103,"[75, 82, 89, 89, 63, 47, 68, 82, 70, 54, 51, 61, 68, 72, 96, 115, 108, 98, 101, 91, 87, 91, 87, 84, 94, 101, 105, 103, 87, 103, 322, 813, 1230, 994, 134, -286, 39, 134, -70, -32, 42, -14, -11, 35, 37, 32, 47, 63, 77, 91, 105, 110, 119, 138, 164, 190, 211, 230, 261, 301, 329, 348, 364, 357, 319, 275, 225, 159, 94, 42, 4, -18, -25]"
1713643382890970486,"[-37, -49, -51, -42, -35, -25, -25, -51, -63, -47, -37, -37, -37, -42, -51, -51, -42, -32, -30, -25, -23, -23, -14, -4, -4, -4, 0, 0, -14, -25, -21, -21, -35, -37, -16, -9, -14, 0, 11, 9, 16, 28, 32, 35, 39, 42, 54, 65, 61, 61, 70, 70, 72, 82, 77, 84, 115, 127, 124, 119, 96, 82, 87, 87, 75, 63, 65, 77, 84, 87, 87, 84, 235]"
1713643383452069347,"[696, 1197, 1131, 322, -291, -42, 183, -16, -39, 70, 23, -16, 35, 49, 32, 56, 75, 75, 84, 101, 103, 98, 94, 103, 124, 152, 183, 216, 246, 277, 303, 312, 315, 298, 249, 188, 134, 72, 16, -16, -37, -44, -39, -37, -39, -35, -25, -14, -9, -4, 2, 2, 4, 16, 23, 14, 0, 4, 21, 30, 35, 37, 35, 37, 42, 47, 54, 54, 49, 49, 56, 58, 58]"
1713643384013198726,"[51, 39, 37, 47, 47, 37, 28, 2, -32, -35, -11, -2, -7, -11, -21, -37, -30, -11, -14, -21, -11, 0, 7, 14, 16, 11, 11, 23, 39, 44, 37, 35, 39, 49, 56, 63, 63, 58, 65, 72, 82, 103, 117, 105, 94, 84, 63, 49, 54, 51, 54, 65, 70, 75, 68, 49, 82, 359, 898, 1284, 912, -4, -284, 98, 108, -87, -9, 47, -7, 16, 58, 47, 39]"
1713643384574297587,"[51, 68, 82, 91, 103, 101, 91, 94, 98, 117, 138, 143, 164, 211, 246, 268, 275, 268, 246, 211, 159, 101, 42, -4, -35, -47, -49, -51, -49, -44, -42, -35, -21, -9, -7, -7, -2, -4, -9, -2, 4, 4, 11, 25, 32, 32, 35, 37, 37, 47, 56, 54, 51, 54, 54, 56, 61, 63, 63, 63, 65, 65, 68, 70, 72, 70, 65, 56, 54, 49, 39, 37, 32]"
1713643385135426966,"[11, -16, -32, -30, -25, -28, -18, -18, -37, -42, -23, -18, -16, -9, -4, 0, 7, 11, 16, 23, 21, 28, 37, 39, 44, 47, 49, 51, 47, 37, 39, 49, 49, 54, 58, 65, 75, 75, 79, 105, 122, 112, 101, 87, 77, 82, 87, 87, 84, 87, 89, 94, 94, 84, 108, 355, 877, 1270, 945, 61, -265, 77, 110, -75, -2, 58, -7, -16, 18, 25, 30, 44, 49]"
1713643385696525827,"[56, 72, 91, 101, 101, 101, 108, 136, 166, 190, 216, 242, 268, 296, 310, 308, 291, 249, 190, 124, 61, 14, -21, -44, -49, -42, -42, -37, -32, -28, -23, -9, 2, 7, 2, 4, 18, 28, 35, 37, 32, 35, 47, 54, 56, 56, 49, 49, 54, 44, 39, 30, 7, 4, 11, 4, 0, -4, -23, -39, -39, -30, -23, -28, -30, -16, -7, -2, 2, 2, 0, 11, 21]"
1713643386257655210,"[25, 30, 30, 25, 30, 42, 47, 51, 42, 21, 16, 18, 23, 30, 30, 28, 35, 47, 56, 63, 61, 54, 63, 72, 75, 79, 82, 79, 87, 96, 110, 127, 129, 117, 105, 96, 91, 91, 87, 84, 94, 101, 89, 75, 65, 65, 197, 620, 1124, 1143, 390, -298, -124, 136, -39, -89, 23, 2, -21, 30, 44, 30, 44, 58, 68, 84, 98, 101, 110, 127, 145, 166, 185]"
1713643386818754071,"[206, 225, 242, 268, 301, 319, 317, 303, 272, 223, 164, 94, 25, -14, -35, -49, -56, -63, -58, -58, -65, -54, -39, -49, -58, -51, -51, -56, -49, -42, -39, -37, -37, -35, -42, -47, -28, -18, -25, -16, -4, -9, -4, -2, -23, -37, -23, -16, -7, 2, 2, 11, 21, 18, 28, 37, 39, 42, 47, 51, 61, 63, 58, 63, 70, 63, 56, 56, 58, 65, 70, 72, 75]"
1713643387379868193,"[79, 87, 91, 87, 87, 94, 96, 101, 96, 84, 96, 119, 119, 96, 82, 77, 82, 91, 91, 84, 84, 91, 101, 101, 82, 131, 463, 994, 1199, 637, -174, -209, 150, 65, -72, 37, 56, -18, -4, 30, 28, 39, 61, 61, 61, 84, 103, 115, 131, 143, 155, 181, 216, 246, 277, 301, 312, 317, 324, 322, 289, 228, 155, 94, 49, 11, -28, -51, -56, -47, -39, -35, -30]"
1713643387940982311,"[-28, -25, -18, -18, -21, -16, -18, -16, -11, -14, -16, -35, -63, -56, -28, -32, -51, -56, -56, -51, -39, -28, -23, -23, -28, -18, -4, 2, 7, 2, -16, -23, -7, 9, 9, 7, 11, 21, 30, 37, 39, 39, 37, 44, 56, 63, 68, 65, 51, 44, 61, 75, 72, 65, 70, 77, 84, 101, 117, 119, 110, 94, 84, 84, 84, 77, 77, 91, 98, 96, 96, 89, 77]"
1713643388502106607,"[181, 580, 1119, 1239, 552, -228, -145, 162, -2, -110, -2, -2, -35, 9, 32, 21, 28, 42, 51, 70, 82, 82, 68, 65, 94, 122, 141, 164, 199, 230, 261, 291, 308, 310, 301, 272, 218, 157, 94, 35, -14, -42, -49, -51, -54, -51, -44, -37, -28, -18, -18, -11, -4, 0, 9, 21, 21, 25, 32, 35, 39, 49, 49, 51, 56, 56, 56, 58, 58, 61, 58, 42, 35]"
1713643389063210551,"[37, 28, 21, 25, 25, 23, 2, -28, -23, -16, -30, -28, -21, -21, -25, -44, -56, -44, -35, -30, -14, -9, -11, -4, 0, 4, 16, 21, 23, 25, 23, 23, 35, 42, 39, 42, 47, 51, 58, 63, 65, 63, 68, 77, 84, 84, 91, 108, 119, 117, 103, 94, 84, 75, 79, 87, 91, 91, 91, 89, 84, 72, 143, 493, 1032, 1218, 604, -188, -164, 155, 23, -87, 32]"
1713643389624339934,"[42, 0, 35, 37, 7, 25, 54, 39, 21, 25, 42, 61, 79, 101, 117, 134, 157, 192, 228, 261, 279, 279, 284, 289, 272, 228, 166, 96, 42, 11, -9, -23, -37, -44, -37, -25, -21, -11, -7, -11, -2, 16, 23, 25, 28, 28, 32, 44, 51, 56, 51, 47, 51, 44, 37, 47, 47, 32, 35, 49, 56, 56, 51, 47, 54, 54, 44, 44, 42, 35, 35, 32, 11]"
1713643390185448969,"[-21, -42, -32, -21, -18, -11, -7, -9, -11, 0, 9, 11, 7, 0, 2, 14, 21, 25, 16, 0, 2, 18, 28, 32, 35, 35, 35, 44, 54, 58, 58, 58, 61, 68, 75, 77, 77, 77, 84, 91, 98, 115, 127, 122, 96, 72, 68, 72, 70, 72, 75, 82, 87, 89, 84, 75, 96, 331, 832, 1227, 943, 84, -265, 79, 136, -79, -37, 39, -4, 2, 47, 39, 39]"
1713643390746568174,"[61, 68, 70, 72, 70, 84, 105, 112, 129, 150, 152, 171, 211, 239, 263, 289, 298, 303, 296, 258, 204, 143, 84, 42, 7, -23, -30, -28, -30, -25, -16, -11, -9, -2, -2, -2, -4, -2, 7, 11, 16, 25, 28, 30, 30, 21, 18, 28, 35, 23, 9, 2, 0, -2, -7, -2, -2, -11, -30, -37, -30, -23, -23, -16, -4, 4, 0, -14, -18, -9, 2, 9, 11]"
1713643391307697553,"[16, 18, 23, 35, 44, 42, 32, 21, 16, 32, 44, 39, 37, 47, 54, 58, 61, 65, 65, 65, 72, 82, 82, 79, 79, 82, 87, 101, 117, 110, 79, 61, 63, 68, 77, 82, 72, 70, 82, 98, 96, 84, 188, 578, 1079, 1145, 458, -249, -122, 176, -2, -103, 25, 28, -25, 16, 44, 35, 39, 42, 37, 49, 72, 94, 108, 115, 124, 145, 176, 209, 239, 263, 284]"
1713643391868796414,"[312, 336, 336, 329, 296, 230, 164, 110, 54, 4, -42, -77, -77, -65, -63, -58, -61, -70, -72, -65, -63, -61, -56, -56, -49, -47, -51, -54, -63, -65, -51, -35, -32, -35, -37, -30, -25, -21, -11, -7, -11, -16, -28, -42, -28, -16, -23, -18, -7, -9, -18, -21, -14, -4, 2, 14, 23, 23, 21, 28, 37, 42, 47, 51, 51, 51, 61, 65, 65, 72, 91, 110, 108]"
1713643392429925797,"[96, 77, 65, 65, 65, 65, 70, 77, 77, 65, 54, 54, 75, 263, 733, 1180, 985, 122, -343, -14, 122, -84, -58, 37, -7, -14, 30, 30, 25, 49, 61, 61, 72, 84, 82, 72, 75, 98, 122, 143, 162, 188, 218, 244, 270, 289, 286, 268, 228, 164, 98, 37, -11, -39, -61, -75, -70, -68, -68, -58, -49, -47, -37, -28, -25, -18, -11, -9, 0, 9, 9, 16, 16]"
1713643392991024658,"[9, 16, 25, 21, 11, -2, -2, 14, 9, -7, -9, -7, -2, 0, -9, -18, -23, -30, -25, -16, -16, -21, -16, -9, -7, 0, 2, -18, -42, -37, -18, -21, -32, -32, -25, -18, -11, 2, 9, 4, 7, 18, 23, 30, 37, 35, 35, 44, 51, 56, 61, 54, 54, 70, 75, 72, 89, 101, 105, 105, 96, 84, 75, 65, 56, 58, 72, 75, 70, 68, 63, 54, 150]"
1713643393552133693,"[533, 1070, 1211, 557, -216, -148, 162, 2, -115, 2, 14, -25, 14, 30, 9, 23, 49, 58, 70, 79, 65, 54, 65, 79, 96, 112, 129, 159, 204, 237, 261, 275, 277, 277, 261, 214, 155, 89, 30, -7, -23, -39, -49, -54, -56, -47, -35, -25, -21, -21, -18, -7, 9, 16, 9, 2, 4, 16, 25, 30, 30, 28, 30, 39, 47, 47, 49, 44, 39, 44, 51, 56, 54]"
1713643394113252898,"[49, 51, 54, 44, 37, 39, 39, 32, 25, 23, 14, -11, -32, -54, -77, -72, -58, -61, -56, -42, -35, -28, -23, -18, -11, -4, 2, 9, 11, 14, 23, 30, 32, 39, 42, 44, 49, 51, 54, 63, 68, 65, 70, 72, 75, 75, 68, 70, 82, 87, 103, 122, 112, 98, 87, 75, 77, 87, 82, 82, 89, 87, 87, 91, 77, 117, 406, 921, 1232, 804, -49, -230, 131]"
1713643394674372107,"[98, -70, 21, 68, 9, 4, 4, -21, -18, -7, 7, 21, 32, 44, 61, 75, 96, 112, 131, 155, 185, 221, 254, 279, 296, 305, 305, 291, 258, 202, 134, 75, 30, 0, -14, -25, -37, -47, -39, -18, -11, -14, -7, 0, 2, 11, 23, 25, 25, 28, 39, 44, 44, 49, 51, 49, 51, 63, 68, 63, 56, 47, 39, 44, 51, 49, 35, 25, 21, 4, -11, -11, -23]"
1713643395235481138,"[-44, -37, -16, -16, -18, -32, -44, -30, -11, -7, -4, -11, -11, 4, 21, 25, 25, 23, 28, 39, 44, 51, 54, 49, 49, 65, 75, 65, 49, 42, 54, 65, 65, 72, 75, 70, 75, 84, 98, 127, 136, 112, 96, 91, 87, 91, 94, 82, 82, 96, 103, 105, 96, 91, 246, 689, 1159, 1098, 312, -291, -49, 174, -23, -44, 51, -4, -23, 39, 47, 32, 49, 63, 72]"
1713643395796579999,"[87, 96, 105, 117, 124, 143, 174, 197, 214, 228, 249, 286, 315, 326, 326, 319, 286, 232, 171, 91, 21, -16, -39, -51, -49, -49, -51, -44, -42, -32, -11, -9, -23, -28, -18, -11, -4, -7, -14, -18, -25, -28, -16, -9, -11, -14, -7, 0, 2, 4, 4, -7, -18, -9, 2, 0, -9, -23, -28, -16, -7, -2, 7, 14, 11, 16, 25, 30, 35, 42, 44, 49, 58]"
1713643396357683951,"[58, 58, 65, 65, 68, 70, 54, 47, 65, 82, 82, 75, 65, 56, 47, 47, 56, 58, 56, 63, 70, 72, 79, 77, 75, 239, 698, 1168, 1084, 286, -296, -35, 176, -21, -39, 65, 32, 21, 63, 63, 56, 65, 65, 68, 84, 91, 98, 115, 131, 136, 129, 141, 181, 214, 244, 279, 301, 310, 315, 303, 263, 206, 141, 72, 16, -16, -35, -47, -49, -54, -56, -44, -30]"
1713643396918808243,"[-25, -32, -44, -42, -25, -16, -7, 0, -4, -18, -16, 4, 11, 11, 14, 14, 18, 32, 35, 16, 4, 9, 16, 16, 11, 4, -7, -18, -11, 0, 4, 4, 0, -4, -9, -2, 9, 11, 7, 7, 18, 28, 21, -2, -18, -7, 9, 16, 25, 28, 21, 28, 39, 47, 51, 54, 49, 54, 65, 72, 75, 72, 68, 72, 84, 77, 68, 79, 101, 105, 98, 91, 79]"
1713643397479922365,"[68, 63, 72, 82, 87, 87, 84, 84, 79, 79, 211, 625, 1117, 1131, 397, -268, -91, 157, -25, -77, 39, 25, 7, 51, 47, 23, 44, 68, 72, 79, 87, 91, 110, 131, 141, 141, 141, 164, 202, 242, 272, 291, 301, 305, 303, 284, 237, 171, 105, 54, 16, -9, -23, -30, -32, -35, -39, -42, -32, -25, -23, -16, -4, 7, 9, 11, 16, 21, 28, 39, 44, 42, 44]"
1713643398041036483,"[44, 47, 58, 58, 51, 54, 56, 56, 56, 37, 14, 16, 18, 16, 21, 18, 4, -4, -7, -9, -18, -23, -16, -9, -9, -4, 2, 0, -14, -30, -32, -14, -4, -9, -2, 9, 9, 16, 23, 23, 30, 39, 39, 44, 51, 51, 54, 49, 37, 42, 51, 49, 58, 65, 63, 70, 75, 75, 87, 110, 119, 115, 103, 91, 84, 84, 84, 84, 84, 89, 98, 101, 94]"
1713643398602160779,"[79, 108, 366, 877, 1234, 891, 28, -270, 84, 119, -65, -2, 42, -25, -2, 47, 32, 30, 51, 56, 58, 58, 49, 56, 75, 91, 112, 138, 162, 185, 214, 246, 275, 301, 317, 310, 291, 265, 204, 127, 63, 16, -23, -39, -42, -42, -42, -42, -42, -30, -16, -9, -7, -7, -4, 7, 25, 37, 32, 25, 28, 39, 51, 54, 49, 39, 42, 61, 63, 63, 63, 42, 35]"
1713643399163264723,"[42, 37, 37, 30, 2, -7, 7, 0, -14, -14, -16, -16, -9, -18, -37, -39, -35, -32, -21, -4, 2, 4, 4, 11, 21, 30, 37, 30, 25, 30, 25, 28, 44, 42, 35, 54, 63, 68, 84, 101, 101, 94, 79, 75, 77, 75, 77, 87, 94, 91, 96, 94, 82, 98, 301, 769, 1194, 1006, 176, -289, 32, 176, -47, -32, 68, 23, 23, 70, 65, 56, 77, 94, 103]"
1713643399724394106,"[110, 119, 124, 136, 155, 178, 183, 181, 204, 244, 282, 319, 336, 324, 317, 305, 268, 211, 143, 72, 9, -39, -61, -63, -70, -72, -61, -47, -37, -32, -30, -21, -14, -11, -2, 16, 23, 21, 30, 37, 42, 49, 51, 49, 42, 35, 39, 49, 44, 35, 30, 18, -4, -21, -16, -9, -2, 0, 0, 4, 7, 7, 16, 25, 30, 30, 28, 30, 42, 56, 51, 39, 44]"
1713643400285503141,"[51, 54, 56, 49, 37, 30, 35, 42, 39, 37, 25, 18, 23, 25, 21, 28, 174, 597, 1055, 987, 235, -336, -96, 148, -16, -49, 54, 35, 14, 61, 68, 56, 72, 84, 82, 101, 124, 136, 143, 157, 176, 197, 225, 254, 268, 284, 324, 362, 369, 362, 343, 286, 209, 145, 82, 23, -16, -39, -51, -56, -49, -35, -32, -32, -28, -32, -49, -44, -32, -35, -25, -7, 0]"
1713643400846622346,"[4, 11, 11, 2, 4, 21, 21, -4, -18, -2, 16, 23, 21, 14, 16, 35, 44, 42, 42, 44, 47, 51, 61, 68, 61, 58, 68, 77, 75, 68, 65, 75, 91, 89, 58, 21, -2, -14, -14, -7, -2, 0, 0, 0, 7, 9, 23, 230, 717, 1133, 917, 84, -338, -16, 96, -108, -65, 32, -30, -61, -21, -16, -14, 14, 28, 37, 39, 35, 44, 75, 94, 110, 129]"
1713643401407721207,"[152, 188, 232, 270, 296, 310, 319, 326, 303, 244, 162, 77, 18, -18, -42, -56, -65, -70, -65, -56, -42, -30, -30, -30, -18, -9, -18, -23, -9, 0, 0, 11, 25, 30, 30, 30, 37, 49, 54, 54, 54, 56, 58, 61, 63, 65, 65, 68, 70, 72, 68, 44, 37, 56, 54, 51, 65, 68, 54, 49, 56, 63, 61, 58, 70, 75, 68, 72, 79, 77, 79, 84, 82]"
1713643401968850586,"[84, 89, 84, 87, 94, 91, 89, 84, 65, 65, 75, 72, 72, 77, 77, 79, 77, 65, 58, 58, 58, 68, 82, 82, 68, 51, 30, 18, 16, 11, 9, 9, 11, 18, 23, 9, -2, 148, 625, 1173, 1157, 343, -317, -117, 77, -119, -131, -23, -56, -75, -30, -21, -25, -7, 4, 11, 30, 49, 61, 70, 82, 101, 124, 150, 178, 204, 232, 261, 289, 310, 312, 303, 275]"
1713643402529949447,"[228, 169, 112, 61, 4, -42, -56, -51, -61, -72, -70, -61, -51, -35, -23, -16, -16, -14, -4, 9, 23, 23, 18, 23, 35, 42, 49, 47, 39, 42, 51, 56, 61, 61, 51, 44, 37, 23, 28, 39, 25, 14, 30, 42, 42, 42, 39, 44, 54, 58, 63, 65, 58, 61, 72, 75, 79, 77, 72, 75, 84, 89, 89, 84, 79, 84, 89, 91, 98, 91, 77, 77, 75]"
1713643403091078830,"[54, 44, 44, 37, 37, 39, 32, 23, 0, -23, -9, 4, 2, 4, 4, 2, 7, 18, 35, 58, 58, 42, 42, 44, 32, 28, 32, 32, 37, 32, 9, -2, -4, -18, 7, 268, 804, 1232, 943, 39, -324, 28, 77, -124, -58, 16, -32, -18, 23, 14, 14, 39, 49, 58, 75, 79, 87, 101, 117, 138, 157, 176, 197, 211, 228, 261, 291, 293, 293, 291, 263, 211, 148]"
1713643403652177691,"[89, 42, 4, -18, -25, -32, -35, -30, -23, -14, -14, -25, -30, -18, -9, -2, 7, 7, 11, 21, 23, 28, 32, 14, 2, 16, 23, 23, 28, 30, 32, 37, 44, 47, 44, 35, 30, 35, 37, 37, 30, 18, 21, 21, 4, 4, 14, 9, 14, 18, 18, 21, 23, 23, 18, 7, 4, 14, 18, 23, 32, 37, 35, 39, 42, 44, 51, 58, 56, 56, 61, 68, 70]"
1713643404213337589,"[70, 75, 82, 75, 79, 91, 94, 87, 70, 56, 75, 105, 110, 89, 54, 23, 4, 9, 25, 23, 16, 30, 47, 54, 49, 35, 124, 493, 1032, 1206, 585, -211, -183, 148, 25, -75, 39, 35, -11, 32, 63, 51, 63, 75, 75, 77, 77, 89, 108, 108, 122, 152, 176, 197, 230, 251, 275, 308, 326, 338, 338, 305, 256, 206, 148, 89, 30, -23, -44, -39, -39, -49, -56]"
1713643404774426279,"[-65, -77, -72, -56, -61, -82, -79, -61, -77, -91, -70, -75, -101, -82, -56, -51, -42, -42, -49, -28, -7, -9, -4, 2, 0, 9, 25, 28, 32, 37, 39, 37, 44, 58, 61, 58, 54, 42, 42, 58, 61, 54, 61, 68, 72, 79, 82, 75, 75, 87, 94, 94, 94, 94, 94, 103, 112, 105, 105, 117, 134, 141, 136, 115, 96, 96, 103, 101, 96, 84, 75, 79, 87]"
1713643405335535310,"[72, 54, 209, 672, 1143, 1034, 228, -319, -51, 122, -89, -84, 35, 0, -21, 25, 35, 23, 47, 68, 68, 72, 89, 105, 117, 134, 148, 162, 174, 190, 228, 268, 291, 308, 324, 326, 315, 284, 221, 152, 94, 39, 0, -23, -39, -44, -39, -37, -30, -23, -23, -14, -7, -2, 2, 7, 0, -2, 7, 4, -14, -23, -18, -14, -23, -39, -56, -70, -65, -51, -49, -49, -39]"
1713643405896664693,"[-35, -30, -21, -16, -16, -18, -30, -30, -11, -4, -9, -4, 2, 7, 18, 25, 25, 30, 35, 28, 28, 37, 35, 30, 39, 51, 56, 58, 58, 56, 58, 70, 77, 79, 75, 79, 101, 119, 122, 108, 87, 79, 77, 82, 89, 89, 87, 87, 89, 94, 79, 68, 256, 754, 1220, 1030, 162, -303, 2, 103, -98, -54, 37, -11, -18, 23, 28, 30, 54, 61, 56, 65, 87]"
1713643406457763554,"[101, 110, 122, 119, 119, 152, 192, 218, 249, 272, 282, 291, 305, 301, 261, 195, 134, 82, 35, 0, -25, -49, -54, -37, -30, -30, -25, -23, -16, -7, 2, 11, 16, 9, 16, 30, 37, 39, 39, 35, 42, 44, 32, 32, 35, 30, 32, 42, 47, 47, 37, 11, 0, 11, 11, 0, 0, 4, 9, 2, -4, -2, -7, -21, -14, 0, 0, 0, 0, 0, 7, 16, 21]"
1713643407018892933,"[23, 11, 4, 16, 25, 28, 28, 25, 28, 35, 42, 42, 21, 2, 11, 28, 32, 39, 42, 42, 54, 79, 94, 87, 72, 58, 51, 61, 68, 68, 68, 70, 65, 56, 49, 44, 159, 562, 1081, 1152, 442, -261, -110, 150, -54, -122, 14, 0, -39, 4, 23, 18, 39, 49, 51, 68, 79, 87, 101, 117, 134, 152, 169, 197, 228, 246, 268, 296, 312, 317, 315, 286, 239]"
1713643407580007055,"[181, 119, 68, 25, -7, -21, -23, -30, -30, -35, -47, -39, -23, -18, -14, -7, -2, 7, 16, 18, 23, 28, 30, 30, 25, 21, 25, 28, 32, 42, 44, 39, 42, 47, 49, 56, 54, 28, 7, 18, 35, 35, 37, 37, 39, 39, 32, 32, 39, 37, 28, 18, 18, 18, 9, 0, -4, -9, 0, 11, 11, 9, 9, 14, 21, 25, 30, 30, 25, 32, 47, 51, 49]"
1713643408141121173,"[47, 51, 58, 65, 72, 84, 84, 72, 65, 63, 51, 44, 47, 44, 44, 44, 42, 44, 44, 35, 39, 185, 609, 1100, 1088, 331, -286, -63, 166, -30, -79, 11, -9, -18, 25, 28, 14, 35, 54, 63, 82, 94, 91, 101, 129, 148, 162, 176, 190, 221, 258, 286, 310, 322, 317, 315, 301, 258, 192, 119, 56, 21, 4, -7, -18, -30, -37, -28, -4, 7, 4, -2, 2]"
1713643408702245469,"[11, 21, 30, 32, 32, 28, 23, 21, 25, 28, 7, -4, 9, 25, 25, 28, 35, 35, 35, 42, 47, 37, 18, 0, -9, -2, 0, -18, -25, -21, -23, -16, -9, -11, -14, -11, -4, 4, 0, -16, -18, -7, 9, 18, 18, 21, 25, 25, 28, 39, 49, 56, 68, 82, 89, 87, 63, 44, 47, 56, 65, 75, 77, 72, 72, 77, 75, 112, 371, 879, 1190, 766, -82]"
1713643409263349413,"[-282, 91, 103, -70, 4, 61, 4, 0, 30, 35, 37, 54, 68, 75, 82, 84, 70, 75, 103, 127, 148, 171, 206, 249, 275, 293, 317, 331, 324, 293, 237, 171, 108, 47, -4, -35, -47, -58, -58, -49, -47, -44, -37, -30, -16, -9, -7, -2, 4, 11, 21, 28, 35, 37, 39, 44, 51, 56, 56, 56, 56, 47, 37, 35, 42, 42, 47, 56, 58, 56, 56, 49, 42]"
1713643409824453365,"[47, 54, 49, 30, 4, -11, -14, -16, -39, -58, -49, -37, -28, -18, -16, -7, 14, 30, 37, 30, 2, -25, -18, 0, 4, 9, 21, 18, 18, 32, 37, 39, 183, 611, 1093, 1065, 301, -315, -87, 145, -47, -70, 47, 23, 0, 35, 39, 42, 63, 77, 84, 84, 82, 87, 105, 124, 138, 148, 171, 206, 239, 275, 303, 312, 324, 333, 326, 293, 230, 152, 91, 51, 16]"
1713643410385577657,"[-14, -51, -84, -75, -54, -49, -42, -39, -42, -25, -14, -18, -25, -37, -47, -32, -11, -4, 0, 2, 2, 9, 23, 32, 35, 32, 30, 37, 47, 49, 54, 51, 49, 56, 63, 68, 70, 63, 56, 70, 82, 82, 84, 77, 61, 63, 75, 77, 72, 72, 75, 77, 84, 84, 82, 72, 65, 65, 72, 72, 61, 47, 39, 35, 30, 30, 30, 9, -18, -4, 35, 42, 30]"
1713643410946676518,"[23, 11, -7, -14, -9, -4, -2, 2, 11, 21, 21, 9, 30, 277, 801, 1204, 858, -42, -348, 21, 54, -134, -58, 7, -42, -28, 14, 9, 9, 32, 47, 49, 63, 84, 87, 84, 101, 127, 145, 166, 195, 225, 254, 279, 303, 312, 310, 303, 272, 214, 150, 96, 44, 11, -7, -23, -30, -23, -21, -28, -49, -51, -32, -23, -25, -11, -9, -21, -18, -7, 0, 11, 18]"
1713643411507805897,"[16, 23, 30, 32, 39, 42, 39, 32, 18, 16, 30, 35, 32, 37, 39, 42, 47, 54, 58, 56, 54, 61, 70, 70, 68, 65, 58, 56, 68, 70, 65, 63, 68, 75, 79, 79, 75, 75, 82, 82, 75, 65, 58, 58, 61, 58, 49, 44, 25, 11, 21, 32, 18, -7, -18, -9, 16, 30, 21, 2, -14, -18, -14, -4, 2, 9, 4, 4, 18, 28, 18, 32, 242]"
1713643412068904758,"[729, 1143, 896, 58, -322, -14, 56, -122, -65, 16, -32, -39, 4, 14, 16, 37, 37, 30, 49, 75, 84, 96, 108, 117, 143, 174, 199, 225, 256, 275, 296, 317, 322, 310, 279, 221, 159, 108, 61, 23, -4, -28, -30, -18, -21, -39, -58, -51, -42, -44, -39, -25, -23, -21, -11, 0, 11, 21, 21, 21, 28, 35, 37, 47, 47, 39, 49, 61, 61, 61, 61, 61, 61]"
1713643412630034137,"[63, 75, 82, 72, 65, 75, 82, 77, 72, 65, 63, 68, 82, 72, 42, 30, 42, 44, 42, 37, 23, 14, 9, 4, 11, 21, 23, 16, 18, 32, 37, 35, 35, 37, 47, 63, 79, 72, 39, 4, -11, -9, 2, 11, 11, 11, 21, 32, 35, 25, 112, 463, 943, 1053, 453, -254, -185, 145, 25, -82, 28, 35, -4, 35, 58, 47, 56, 68, 70, 89, 108, 108, 98]"
1713643413191163520,"[103, 129, 150, 164, 190, 204, 218, 261, 293, 301, 310, 308, 284, 242, 176, 105, 49, 4, -30, -44, -49, -56, -51, -44, -42, -30, -21, -21, -14, -11, -23, -49, -49, -25, -23, -25, -9, 4, 4, 4, 9, 11, 18, 25, 28, 28, 28, 28, 35, 42, 39, 28, 18, 21, 30, 35, 28, 14, 4, 0, 0, 0, 0, -4, 2, 18, 21, 4, -11, -21, -18, -11, -2]"
1713643413752262381,"[7, 9, 2, 7, 21, 18, 68, 364, 851, 1070, 595, -195, -303, 65, 30, -127, -28, 21, -25, -7, 18, 9, 7, 7, -2, -2, 11, 25, 44, 70, 94, 108, 122, 155, 195, 230, 263, 286, 296, 303, 305, 279, 225, 155, 82, 25, -9, -32, -49, -63, -68, -54, -44, -47, -49, -56, -56, -42, -28, -16, -7, -4, -7, 4, 23, 28, 30, 30, 28, 37, 44, 47, 49]"
1713643414313391760,"[44, 39, 47, 56, 58, 58, 54, 51, 58, 63, 68, 58, 32, 16, 18, 28, 18, -7, -16, 2, 9, 14, 23, 28, 25, 28, 37, 58, 79, 91, 82, 58, 32, 23, 32, 35, 23, 14, 14, 16, 4, -2, -9, 25, 293, 804, 1117, 703, -145, -343, 25, 21, -148, -61, -9, -61, -37, 2, -7, 2, 23, 25, 32, 54, 65, 75, 91, 105, 124, 150, 171, 197, 228]"
1713643414874490621,"[256, 282, 303, 305, 289, 261, 218, 164, 105, 44, -21, -63, -75, -77, -89, -103, -96, -77, -72, -63, -51, -47, -35, -23, -18, -11, -7, -2, 7, 16, 18, 21, 25, 28, 32, 35, 23, 14, 21, 28, 32, 37, 37, 42, 44, 47, 56, 58, 56, 61, 61, 63, 75, 77, 70, 70, 75, 77, 84, 84, 82, 79, 82, 84, 91, 91, 89, 89, 84, 75, 82, 89, 79]"
1713643415435620000,"[79, 101, 119, 96, 58, 37, 16, 4, 21, 32, 30, 30, 32, 37, 47, 47, 42, 181, 604, 1084, 1037, 261, -326, -91, 101, -96, -119, -28, -72, -96, -51, -39, -39, -16, -4, -7, 2, 23, 42, 58, 70, 79, 98, 131, 162, 192, 221, 239, 258, 279, 289, 282, 254, 195, 127, 82, 44, 4, -28, -54, -65, -58, -49, -39, -37, -35, -23, -9, -11, -30, -37, -30, -16]"
1713643415996718861,"[-4, 4, 14, 11, 9, 18, 32, 35, 32, 18, 4, 14, 28, 32, 37, 32, 30, 39, 37, 28, 32, 35, 30, 37, 51, 56, 54, 56, 61, 63, 70, 77, 77, 72, 75, 82, 87, 89, 91, 84, 79, 94, 101, 103, 101, 94, 94, 101, 105, 105, 101, 87, 87, 96, 103, 119, 134, 131, 112, 96, 79, 56, 44, 51, 56, 58, 68, 72, 68, 51, 49, 218, 670]"
1713643416557822813,"[1119, 990, 178, -343, -63, 96, -117, -124, -30, -68, -89, -49, -44, -44, -18, -11, -4, 18, 35, 44, 63, 77, 94, 117, 143, 166, 197, 228, 258, 282, 293, 298, 296, 268, 214, 152, 96, 49, 14, -18, -32, -39, -51, -44, -32, -30, -23, -9, -9, -4, 7, 11, 18, 9, -7, 4, 23, 18, 25, 35, 32, 35, 44, 51, 56, 47, 42, 54, 61, 58, 58, 63, 65]"
1713643417118947105,"[58, 51, 51, 56, 56, 58, 63, 63, 61, 49, 35, 39, 58, 54, 49, 56, 61, 65, 75, 75, 79, 98, 108, 112, 105, 79, 51, 47, 54, 58, 61, 49, 28, 9, 4, 2, 23, 216, 672, 1067, 858, 47, -369, -32, 98, -115, -105, -16, -47, -49, -14, -11, -7, 18, 30, 35, 44, 56, 75, 96, 112, 131, 143, 162, 190, 214, 239, 270, 282, 289, 298, 286, 246]"
1713643417680045966,"[181, 105, 44, 7, -21, -42, -65, -89, -91, -70, -61, -54, -44, -47, -39, -21, -9, -2, 2, 2, 11, 23, 28, 30, 16, 4, 18, 32, 30, 35, 37, 32, 37, 44, 51, 58, 54, 37, 23, 16, 28, 35, 30, 30, 37, 47, 51, 51, 49, 54, 58, 61, 65, 70, 63, 51, 47, 51, 61, 61, 54, 58, 75, 84, 84, 75, 51, 30, 21, 21, 16, 4, 2]"
1713643418241175345,"[4, 9, 16, 14, 4, 122, 533, 1041, 1070, 326, -350, -171, 94, -79, -129, -25, -54, -77, -28, -14, -16, 4, 16, 21, 35, 54, 65, 77, 94, 105, 101, 105, 148, 183, 206, 237, 261, 275, 284, 279, 249, 199, 134, 77, 32, -7, -39, -63, -75, -65, -56, -54, -47, -35, -30, -21, -11, -2, 7, 14, 16, 25, 32, 35, 42, 47, 47, 51, 56, 56, 58, 63, 61]"
1713643418802274206,"[63, 65, 63, 68, 77, 65, 44, 28, 23, 32, 39, 39, 42, 47, 49, 56, 61, 58, 61, 63, 65, 70, 58, 32, 30, 42, 44, 51, 58, 56, 54, 63, 70, 72, 72, 68, 58, 47, 37, 37, 42, 42, 42, 49, 44, 23, 2, -4, 0, 7, 9, 16, 21, 18, 18, 21, 18, 75, 381, 893, 1147, 656, -155, -242, 108, 37, -110, -4, 35, -14, -4, 9, 4]"
1713643419363403585,"[21, 42, 51, 58, 54, 44, 63, 91, 108, 124, 138, 162, 197, 230, 246, 242, 244, 261, 270, 258, 228, 169, 96, 42, 9, -11, -28, -39, -47, -56, -51, -35, -23, -23, -23, -9, 4, 14, 23, 25, 23, 32, 49, 54, 54, 56, 54, 58, 68, 70, 72, 72, 65, 70, 79, 84, 84, 79, 75, 79, 84, 77, 70, 68, 68, 72, 79, 79, 84, 87, 82, 84, 91]"
1713643419924507537,"[96, 98, 94, 94, 98, 101, 98, 98, 82, 58, 65, 82, 82, 70, 58, 63, 68, 65, 70, 84, 79, 58, 39, 21, 14, 9, 0, 2, 11, 18, 21, 18, 14, 18, 174, 616, 1084, 1006, 230, -338, -75, 145, -49, -75, 37, 16, -2, 39, 49, 39, 56, 65, 61, 65, 79, 89, 103, 119, 138, 162, 185, 209, 239, 268, 293, 317, 326, 331, 324, 291, 242, 183, 117]"
1713643420485631829,"[47, -16, -54, -58, -58, -61, -51, -42, -44, -39, -25, -25, -25, -7, 2, 0, 2, -9, -7, 9, 16, 18, 23, 23, 30, 37, 39, 47, 51, 49, 54, 58, 61, 63, 63, 63, 72, 75, 72, 75, 77, 79, 82, 72, 61, 63, 70, 70, 82, 103, 117, 115, 94, 75, 75, 70, 56, 42, 49, 61, 61, 49, 39, 32, 35, 211, 653, 1044, 844, 35, -409, -82, 77]"
1713643421046745951,"[-124, -110, -16, -63, -70, -14, -14, -30, -32, -25, -2, 16, 23, 35, 51, 72, 98, 127, 150, 171, 199, 237, 272, 298, 303, 293, 270, 232, 176, 110, 49, -2, -37, -51, -63, -77, -75, -72, -72, -58, -42, -30, -28, -28, -18, -4, 7, 16, 21, 18, 23, 37, 44, 47, 47, 44, 44, 51, 39, 16, 14, 18, 23, 30, 39, 44, 37, 23, 30, 47, 47, 49, 49]"
1713643421607860069,"[44, 49, 61, 65, 68, 63, 56, 63, 77, 79, 70, 56, 58, 84, 98, 84, 63, 47, 47, 54, 58, 61, 65, 61, 49, 32, 14, 21, 188, 635, 1100, 992, 169, -378, -98, 72, -134, -124, -14, -51, -68, -25, -21, -23, 2, 16, 18, 25, 39, 54, 56, 49, 56, 84, 110, 138, 174, 195, 204, 223, 239, 244, 239, 211, 152, 89, 35, -7, -35, -56, -68, -70, -65]"
1713643422168958930,"[-58, -47, -39, -35, -28, -21, -11, -2, -11, -21, -9, 0, 4, 14, 18, 18, 14, 4, 11, 23, 21, 23, 32, 35, 37, 42, 44, 49, 54, 56, 58, 63, 63, 65, 70, 70, 72, 77, 77, 79, 84, 84, 75, 54, 39, 51, 61, 54, 49, 39, 42, 54, 56, 56, 61, 63, 68, 75, 75, 77, 94, 112, 117, 112, 96, 77, 72, 77, 77, 84, 87, 84, 84]"
1713643422730118831,"[87, 82, 79, 195, 590, 1081, 1091, 341, -322, -145, 89, -101, -150, -37, -51, -79, -39, -32, -37, -14, 4, 9, 16, 28, 39, 58, 79, 94, 108, 127, 155, 188, 221, 246, 265, 270, 254, 239, 225, 174, 89, 28, -4, -35, -61, -72, -82, -82, -70, -56, -47, -39, -37, -32, -18, -4, 2, 9, 9, 11, 25, 35, 42, 42, 37, 39, 51, 56, 58, 58, 51, 42, 39]"
1713643423291217692,"[42, 51, 44, 18, 18, 37, 44, 47, 47, 44, 49, 61, 68, 70, 68, 63, 68, 79, 82, 84, 82, 77, 82, 91, 94, 96, 91, 84, 77, 61, 47, 44, 39, 39, 49, 58, 70, 91, 101, 94, 82, 72, 70, 75, 72, 68, 72, 84, 84, 84, 77, 65, 138, 470, 973, 1154, 573, -204, -192, 131, 9, -117, -25, -30, -75, -30, -7, -21, -9, 11, 18, 32, 49]"
1713643423852316553,"[56, 63, 77, 96, 119, 143, 164, 188, 214, 244, 270, 277, 265, 254, 239, 204, 150, 91, 37, -4, -44, -89, -117, -110, -101, -96, -87, -70, -61, -56, -44, -30, -25, -11, 2, 2, 4, 14, 23, 28, 37, 42, 42, 49, 51, 51, 54, 54, 61, 72, 70, 68, 79, 79, 68, 65, 72, 77, 79, 79, 82, 87, 87, 91, 91, 91, 96, 105, 103, 101, 103, 103, 108]"
1713643424413430675,"[115, 115, 110, 112, 131, 155, 155, 131, 105, 82, 68, 63, 49, 16, -7, -2, 4, 0, -9, 11, 261, 759, 1077, 693, -131, -348, 30, 54, -124, -44, 18, -37, -18, 30, 18, 23, 54, 58, 58, 75, 94, 110, 124, 134, 148, 166, 190, 223, 258, 279, 293, 312, 329, 329, 305, 254, 183, 119, 70, 30, -4, -32, -44, -42, -35, -25, -16, -18, -21, -4, 7, 11, 18]"
1713643424974544793,"[23, 25, 32, 37, 32, 23, 4, -7, 7, 21, 23, 21, 4, -11, 4, 23, 23, 23, 23, 25, 39, 49, 51, 49, 44, 49, 58, 65, 68, 68, 63, 68, 84, 105, 122, 115, 79, 51, 58, 75, 72, 63, 61, 65, 72, 82, 79, 56, 65, 312, 823, 1178, 818, -61, -345, 28, 58, -136, -63, -2, -56, -35, 4, -2, 0, 16, 18, 23, 28, 32, 51, 51, 39]"
1713643425535669089,"[63, 103, 127, 155, 185, 209, 237, 261, 268, 249, 204, 157, 105, 47, -4, -42, -75, -91, -89, -82, -79, -77, -72, -58, -49, -42, -32, -35, -37, -25, -11, -2, 4, 7, 11, 16, 23, 30, 32, 30, 32, 37, 39, 47, 49, 47, 49, 54, 56, 61, 63, 61, 63, 65, 68, 72, 72, 72, 70, 56, 49, 61, 61, 54, 37, 18, 23, 39, 37, 35, 39, 49, 68]"
1713643426096773033,"[87, 87, 77, 61, 47, 49, 44, 21, 23, 39, 37, 37, 47, 35, 49, 272, 769, 1175, 900, 37, -315, 35, 89, -117, -58, 18, -32, -30, -2, -14, -21, -11, 0, 9, 16, 28, 37, 51, 72, 91, 108, 131, 159, 190, 223, 249, 261, 268, 265, 249, 202, 131, 70, 21, -21, -47, -61, -87, -115, -112, -94, -84, -72, -58, -54, -49, -39, -23, -11, -4, -4, 0, 9]"
1713643426657902416,"[18, 28, 30, 21, 7, 7, 21, 30, 25, 11, 0, 11, 25, 30, 35, 35, 32, 39, 51, 58, 58, 56, 56, 65, 72, 77, 77, 75, 75, 82, 89, 94, 91, 84, 84, 94, 101, 101, 101, 91, 91, 89, 79, 84, 101, 108, 117, 119, 103, 68, 37, 32, 44, 49, 54, 61, 61, 56, 54, 54, 155, 536, 1048, 1131, 453, -239, -110, 171, 4, -70, 44, 32, -16]"
1713643427219001277,"[9, 7, -7, 11, 23, 16, 16, 14, 16, 39, 61, 72, 84, 89, 105, 141, 178, 206, 228, 235, 237, 235, 216, 171, 110, 47, -2, -30, -47, -56, -63, -68, -77, -77, -63, -51, -47, -37, -25, -16, -4, -2, -18, -28, -14, 0, 7, 16, 23, 23, 25, 30, 37, 42, 42, 44, 49, 54, 61, 65, 70, 70, 65, 65, 68, 58, 54, 63, 70, 68, 75, 82, 77]"
1713643427780130656,"[75, 82, 89, 96, 96, 91, 91, 91, 96, 96, 82, 75, 79, 82, 89, 105, 119, 129, 122, 96, 84, 87, 87, 75, 65, 63, 75, 84, 82, 75, 77, 232, 682, 1147, 1027, 206, -329, -37, 148, -70, -75, 35, -4, -30, 7, 7, -7, 2, 9, 16, 30, 39, 51, 70, 82, 84, 96, 119, 150, 188, 221, 246, 261, 268, 272, 265, 230, 169, 103, 44, 2, -32, -56]"
1713643428341229517,"[-65, -68, -65, -56, -44, -44, -44, -47, -54, -42, -18, -14, -14, -11, -14, -18, -9, 4, 4, 7, 16, 23, 28, 30, 28, 30, 30, 11, 0, 11, 16, 11, 21, 35, 39, 42, 39, 42, 49, 56, 63, 65, 61, 58, 68, 75, 65, 54, 49, 56, 63, 70, 77, 75, 72, 87, 115, 124, 115, 94, 70, 65, 75, 79, 82, 82, 77, 72, 72, 63, 58, 195, 616]"
1713643428902358896,"[1103, 1074, 293, -343, -119, 105, -103, -129, -7, -37, -79, -54, -39, -32, -11, 2, 4, 9, 28, 37, 30, 30, 51, 72, 101, 138, 174, 206, 228, 244, 261, 272, 263, 228, 164, 94, 42, -4, -49, -72, -82, -87, -77, -63, -54, -49, -44, -39, -25, -14, -4, 2, 4, 9, 21, 32, 39, 42, 42, 44, 51, 61, 61, 61, 58, 58, 63, 70, 75, 70, 56, 51, 63]"
1713643429463457757,"[70, 70, 68, 68, 68, 72, 79, 72, 54, 49, 58, 63, 54, 30, 18, 32, 37, 39, 49, 51, 49, 54, 58, 61, 68, 68, 68, 70, 63, 54, 54, 61, 58, 58, 51, 49, 58, 58, 63, 75, 70, 56, 32, 11, 7, 14, 14, 16, 21, 21, 23, 30, 18, 18, 197, 665, 1138, 1004, 171, -324, -25, 105, -98, -70, 23, -21, -25, 18, 23, 23, 39, 49, 54]"
1713643430024587140,"[65, 82, 94, 103, 115, 115, 112, 143, 178, 199, 221, 230, 239, 263, 270, 256, 228, 178, 119, 61, 0, -44, -61, -70, -70, -61, -56, -54, -47, -35, -23, -11, -4, -2, 2, 4, 16, 32, 39, 32, 32, 42, 51, 56, 58, 56, 54, 56, 65, 68, 68, 61, 51, 51, 63, 68, 68, 65, 63, 68, 77, 79, 79, 75, 72, 79, 87, 89, 87, 82, 70, 56, 56]"
1713643430585696175,"[70, 70, 61, 63, 72, 75, 70, 56, 30, 21, 28, 16, -2, -4, -11, -23, -11, 0, 2, 7, 7, 7, 18, 35, 56, 68, 58, 44, 39, 35, 35, 39, 35, 39, 51, 58, 63, 56, 37, 112, 463, 987, 1187, 602, -204, -199, 143, 32, -87, 21, 28, -14, 28, 56, 44, 51, 63, 72, 89, 105, 112, 115, 112, 108, 115, 145, 174, 195, 223, 256, 286, 308, 315]"
1713643431146815380,"[303, 272, 221, 162, 103, 47, 0, -30, -42, -42, -44, -58, -68, -58, -42, -32, -23, -21, -18, -9, 2, 11, 16, 21, 28, 32, 39, 49, 54, 49, 47, 51, 56, 54, 42, 32, 39, 44, 47, 54, 56, 58, 61, 63, 65, 70, 65, 65, 72, 70, 61, 61, 63, 58, 54, 32, -2, -7, 0, -4, -4, 0, 0, 9, 18, 14, 2, 14, 44, 47, 21, 11, 14]"
1713643431707914241,"[16, 21, 25, 25, 35, 39, 37, 44, 35, 105, 475, 1001, 1110, 449, -289, -188, 145, 7, -89, 30, 35, -7, 32, 54, 35, 39, 44, 51, 70, 87, 91, 105, 124, 143, 166, 195, 216, 239, 270, 305, 329, 341, 341, 324, 291, 235, 166, 94, 18, -47, -70, -72, -79, -77, -70, -70, -70, -68, -65, -54, -47, -42, -30, -16, -7, 0, 7, 7, 16, 30, 37, 35, 32]"
1713643432269043620,"[32, 39, 44, 49, 51, 39, 21, 21, 35, 39, 39, 37, 39, 47, 54, 54, 39, 16, 9, 21, 28, 32, 28, 11, 4, 2, 2, 11, 11, 2, 11, 39, 58, 58, 42, 14, 7, 18, 28, 28, 32, 18, -2, 2, 16, 9, 51, 341, 860, 1159, 700, -159, -310, 63, 28, -129, -25, 21, -37, -18, 18, 18, 28, 49, 49, 51, 70, 91, 103, 117, 129, 141, 166]"
1713643432830142481,"[199, 230, 261, 282, 298, 317, 326, 310, 265, 197, 122, 68, 23, -16, -44, -65, -75, -70, -58, -49, -44, -44, -39, -25, -14, -9, -4, -2, 2, 14, 23, 28, 28, 28, 23, 7, 0, 14, 23, 7, -2, 9, 21, 21, 21, 23, 28, 35, 44, 47, 47, 49, 49, 54, 63, 65, 63, 63, 65, 70, 77, 77, 75, 77, 79, 82, 87, 87, 84, 87, 84, 75, 61]"
1713643433391271864,"[54, 49, 51, 54, 51, 42, 30, 30, 30, 16, 0, -9, -14, -9, -2, -2, 2, 9, 11, 16, 11, 4, 138, 571, 1084, 1093, 331, -333, -148, 82, -103, -143, -28, -47, -70, -23, -11, -14, 9, 23, 28, 39, 54, 70, 87, 98, 115, 136, 159, 190, 221, 249, 275, 296, 308, 315, 308, 275, 221, 155, 96, 51, 2, -39, -51, -51, -49, -39, -32, -30, -25, -18, -9]"
1713643433952401243,"[2, 7, 9, 14, 21, 28, 37, 39, 35, 23, 14, 25, 37, 37, 32, 32, 37, 44, 49, 47, 28, 0, -7, 11, 21, 21, 21, 21, 25, 37, 44, 44, 42, 42, 51, 58, 63, 65, 63, 61, 68, 77, 79, 82, 77, 75, 84, 89, 94, 91, 84, 84, 91, 84, 70, 70, 75, 72, 72, 79, 96, 108, 89, 61, 42, 35, 28, 16, 4, 14, 25, 32, 32]"
1713643434513500104,"[23, 7, 127, 540, 1058, 1112, 390, -310, -148, 136, -32, -89, 14, -37, -89, -30, -9, -23, -18, -18, -7, 25, 44, 51, 61, 75, 96, 122, 152, 185, 211, 237, 268, 298, 312, 317, 308, 279, 232, 171, 110, 58, 16, -16, -42, -51, -47, -37, -37, -37, -32, -18, -2, 7, 2, 7, 21, 32, 39, 47, 44, 39, 49, 63, 65, 61, 68, 70, 65, 72, 79, 75, 68]"
1713643435074619313,"[72, 75, 79, 79, 70, 63, 56, 32, 23, 23, 4, 4, 18, 21, 30, 37, 35, 39, 47, 51, 61, 63, 63, 72, 91, 112, 117, 94, 61, 47, 51, 56, 51, 42, 35, 28, 4, -9, -2, 39, 296, 801, 1112, 693, -148, -333, 51, 51, -127, -37, 21, -35, -14, 25, 14, 21, 47, 49, 56, 75, 87, 96, 110, 127, 150, 176, 197, 218, 237, 263, 298, 312, 296]"
1713643435635728344,"[263, 232, 183, 117, 51, -4, -56, -98, -112, -108, -103, -101, -94, -87, -77, -61, -54, -49, -39, -30, -21, -11, -4, 4, 11, 11, 9, 7, 7, 9, 11, 16, 23, 30, 32, 30, 28, 32, 39, 47, 51, 49, 44, 47, 56, 61, 61, 58, 58, 61, 68, 72, 70, 68, 65, 72, 77, 75, 65, 54, 65, 91, 96, 82, 51, 4, -23, -7, 7, 2, 0, -7, -16]"
1713643436196857727,"[-14, -25, -23, 162, 620, 1065, 907, 63, -416, -87, 44, -164, -124, -21, -65, -72, -32, -37, -49, -25, -4, -2, 2, 21, 42, 61, 79, 94, 108, 138, 176, 211, 242, 265, 275, 289, 298, 282, 235, 166, 91, 39, 2, -25, -44, -58, -65, -58, -47, -47, -56, -58, -51, -39, -28, -18, -9, -14, -35, -42, -25, -9, -9, -9, -2, 7, 16, 21, 21, 18, 21, 28, 35]"
1713643436757956588,"[39, 39, 37, 37, 42, 51, 51, 35, 14, 4, 11, 21, 25, 25, 25, 32, 39, 47, 49, 49, 49, 54, 58, 65, 68, 65, 65, 68, 72, 77, 77, 75, 77, 79, 84, 91, 89, 94, 112, 124, 108, 70, 37, 30, 32, 28, 23, 18, 11, 0, -21, -47, -58, 11, 338, 879, 1135, 585, -244, -286, 61, -32, -159, -47, -23, -65, -35, -4, -11, 0, 18, 25, 28]"
1713643437319065623,"[30, 37, 51, 70, 89, 103, 131, 162, 185, 214, 232, 239, 263, 279, 272, 249, 206, 141, 84, 37, -7, -35, -49, -54, -51, -44, -42, -35, -28, -21, -7, -4, -16, -18, -7, 2, 11, 18, 21, 23, 28, 32, 25, 2, -2, 9, 14, 18, 30, 32, 30, 30, 35, 44, 54, 54, 54, 54, 58, 65, 72, 72, 72, 72, 65, 61, 70, 75, 68, 65, 72, 82, 87]"
1713643437880184828,"[87, 82, 79, 84, 94, 98, 94, 77, 61, 65, 75, 79, 79, 79, 77, 82, 98, 122, 131, 115, 89, 72, 56, 44, 37, 25, 18, 16, 16, 16, 2, -21, 42, 371, 900, 1126, 564, -270, -308, 61, -25, -159, -47, -25, -68, -30, 4, 0, 7, 14, 21, 42, 65, 82, 89, 84, 94, 124, 155, 178, 202, 228, 258, 289, 310, 322, 312, 284, 242, 183, 119, 68, 21]"
1713643438441283689,"[-18, -32, -32, -30, -30, -35, -32, -18, -7, 0, 2, -11, -18, -7, -2, -7, -2, 0, 4, 18, 28, 30, 35, 32, 37, 44, 51, 54, 47, 23, 14, 32, 47, 42, 42, 47, 49, 56, 65, 65, 63, 65, 70, 72, 79, 82, 72, 65, 70, 77, 82, 79, 79, 84, 84, 82, 94, 101, 89, 72, 75, 94, 117, 115, 87, 56, 37, 25, 28, 30, 25, 25, 28]"
1713643439002413068,"[32, 44, 39, 32, 150, 547, 1030, 1039, 284, -383, -166, 110, -72, -119, 0, -18, -42, 2, 16, 9, 23, 32, 18, 11, 37, 58, 65, 87, 110, 129, 155, 185, 214, 251, 284, 305, 317, 312, 289, 256, 202, 129, 65, 14, -21, -37, -51, -58, -54, -47, -42, -32, -25, -21, -14, -7, 2, 14, 21, 23, 30, 35, 42, 51, 56, 56, 58, 58, 58, 51, 42, 42, 47]"
1713643439563511933,"[44, 51, 61, 61, 51, 37, 28, 39, 51, 47, 44, 47, 51, 54, 44, 18, 18, 28, 30, 37, 49, 44, 30, 21, 30, 42, 39, 30, 9, -2, -2, 2, 4, 7, 14, 30, 49, 51, 35, 18, 7, 9, 21, 28, 32, 35, 30, 32, 37, 32, 103, 446, 980, 1185, 604, -199, -199, 141, 18, -103, 9, 14, -30, 7, 21, 9, 32, 54, 58, 63, 70, 82, 101]"
1713643440124641312,"[119, 136, 150, 162, 190, 225, 254, 261, 244, 242, 265, 270, 244, 202, 134, 61, 16, -14, -42, -68, -91, -94, -77, -65, -58, -47, -44, -39, -25, -11, -4, 2, 4, 7, 18, 30, 37, 39, 37, 39, 49, 56, 58, 58, 56, 56, 61, 68, 70, 70, 65, 56, 47, 54, 61, 58, 56, 58, 65, 70, 72, 70, 70, 72, 77, 84, 84, 82, 82, 82, 87, 91, 82]"
1713643440685750347,"[54, 30, 35, 47, 39, 28, 23, 16, 9, 9, 4, -21, -39, -25, -18, -16, -4, 0, 0, 11, 32, 54, 56, 39, 28, 23, 23, 30, 37, 37, 39, 49, 51, 51, 42, 96, 409, 931, 1178, 672, -138, -218, 122, 35, -108, 4, 35, -21, 14, 47, 28, 39, 61, 63, 72, 89, 96, 108, 122, 136, 155, 178, 199, 225, 254, 263, 265, 282, 296, 293, 272, 235, 181]"
1713643441246869552,"[117, 51, -11, -47, -54, -54, -58, -63, -65, -75, -68, -47, -35, -32, -28, -18, -7, 4, 14, 16, 16, 21, 35, 44, 44, 44, 47, 47, 54, 65, 65, 61, 56, 51, 49, 51, 58, 58, 58, 63, 68, 77, 84, 79, 75, 79, 84, 91, 96, 89, 89, 94, 84, 79, 89, 87, 75, 51, 18, 11, 21, 16, 7, 21, 35, 18, 7, 16, 16, 21, 39, 44, 51]"
1713643441807998931,"[63, 70, 82, 89, 77, 49, 21, 23, 49, 56, 51, 54, 51, 54, 63, 94, 317, 799, 1147, 832, 14, -279, 89, 155, -56, -11, 77, 35, 35, 72, 63, 68, 98, 110, 108, 112, 122, 138, 162, 176, 190, 211, 230, 256, 289, 331, 369, 376, 371, 376, 350, 277, 199, 138, 72, 23, -9, -54, -82, -72, -63, -58, -49, -37, -30, -30, -23, -7, 4, 11, 16, 16, 25]"
1713643442369097792,"[37, 47, 49, 51, 51, 49, 51, 61, 58, 39, 28, 35, 47, 54, 54, 49, 37, 32, 47, 58, 54, 51, 54, 44, 39, 49, 44, 42, 56, 63, 63, 47, 14, -4, 2, 4, 4, 11, 18, 14, 16, 25, 25, 0, 51, 404, 933, 1074, 451, -322, -277, 82, -23, -136, -18, 0, -47, -7, 21, 7, 23, 47, 49, 56, 75, 89, 105, 124, 138, 157, 185, 211, 242]"
1713643442930227175,"[277, 303, 329, 343, 338, 324, 284, 206, 129, 68, 14, -32, -70, -91, -87, -79, -82, -77, -70, -65, -56, -47, -39, -32, -25, -16, -2, 4, 9, 14, 18, 23, 32, 37, 37, 37, 25, 9, 7, 4, -4, 0, 9, 14, 23, 28, 25, 25, 32, 39, 47, 49, 47, 47, 51, 58, 65, 68, 68, 63, 68, 87, 108, 117, 105, 89, 77, 70, 72, 68, 49, 35, 37]"
1713643443491326036,"[47, 44, 28, -2, 7, 239, 726, 1046, 679, -136, -373, -2, 39, -131, -65, -7, -56, -35, 7, 2, 4, 21, 25, 39, 61, 72, 79, 89, 98, 96, 89, 117, 155, 181, 209, 246, 270, 277, 272, 246, 195, 131, 75, 32, -23, -75, -68, -51, -79, -75, -49, -70, -65, -11, 4, -7, -7, -7, -2, 11, 0, 14, 39, -4, -18, 23, 39, 56, 68, 54, 61, 65, 37]"
1713643444052455415,"[39, 65, 58, 47, 54, 58, 72, 89, 65, 49, 70, 68, 39, 25, 51, 87, 77, 42, 7, 49, 129, 63, -30, 23, 75, 54, 56, 42, 7, 47, 70, 21, 32, 87, 79, 61, 56, 47, 54, 70, 134, 444, 961, 1168, 616, -157, -174, 164, 54, -89, 39, 79, 4, 2, 37, 37, 30, 42, 47, 47, 44, 51, 65, 47, 42, 103, 141, 122, 127, 174, 232, 263, 263]"
1713643444613554276,"[263, 270, 225, 155, 129, 77, 2, -37, -44, -72, -112, -96, -101, -122, -112, -117, -110, -94, -84, -77, -77, -35, -16, -30, -14, -2, -4, 9, 9, 14, 35, 23, 16, 42, 39, 47, 68, 61, 58, 61, 54, 70, 96, 79, 32, 42, 65, 68, 108, 108, 63, 70, 91, 72, 75, 131, 148, 119, 129, 108, 70, 103, 117, 84, 91, 122, 115, 84, 87, 105, 115, 235, 630]"
1713643445174683655,"[1086, 1032, 326, -232, -49, 176, 11, -56, 28, 21, 14, 65, 72, 21, 16, 56, 49, 68, 124, 134, 141, 148, 148, 178, 206, 216, 232, 305, 369, 352, 317, 319, 331, 308, 237, 138, 37, -44, -68, -49, -54, -82, -96, -101, -91, -89, -110, -103, -63, -44, -44, -42, -32, -18, -51, -49, 28, 25, -14, 14, 23, 2, -9, 2, 30, 42, 25, 9, 23, 37, 7, -7, 21]"
1713643445735807951,"[-2, -39, 23, 63, 11, 2, 37, 35, 58, 105, 68, -2, 2, 35, 47, 37, 23, 28, 49, 58, 63, 65, 37, 56, 319, 809, 1138, 818, -4, -312, 35, 105, -72, -21, 39, -4, 16, 56, 54, 49, 58, 79, 94, 101, 115, 124, 117, 134, 174, 185, 202, 244, 270, 289, 322, 343, 341, 324, 284, 214, 145, 84, 28, -23, -70, -108, -117, -110, -122, -129, -119, -124, -131]"
1713643446296911895,"[-115, -98, -103, -103, -82, -65, -63, -68, -70, -65, -58, -47, -32, -37, -37, -28, -28, -30, -23, -18, -16, -14, -11, 4, 18, 9, 11, 28, 30, 35, 37, 37, 49, 54, 51, 65, 68, 61, 75, 77, 70, 75, 75, 72, 96, 98, 79, 91, 127, 138, 124, 110, 96, 77, 70, 75, 84, 87, 70, 51, 51, 63, 63, 54, 209, 705, 1227, 1098, 235, -298, -16, 134, -58]"
1713643446858041278,"[-47, 42, 4, -2, 28, 11, 7, 35, 32, 16, 28, 49, 63, 72, 89, 112, 127, 143, 178, 223, 244, 256, 275, 282, 272, 256, 223, 157, 84, 18, -30, -68, -103, -127, -129, -122, -112, -103, -96, -91, -94, -94, -72, -56, -56, -54, -47, -37, -23, -11, -25, -54, -54, -35, -21, -14, -11, -14, -11, 0, 11, 18, 18, 16, 23, 32, 39, 49, 49, 42, 44, 56, 56]"
1713643447419140139,"[44, 42, 44, 47, 56, 65, 65, 58, 44, 44, 54, 61, 70, 72, 61, 63, 82, 105, 119, 115, 94, 82, 77, 82, 87, 77, 72, 84, 94, 91, 94, 77, 70, 239, 705, 1161, 1027, 214, -289, 0, 159, -32, -21, 58, -7, -18, 35, 42, 32, 49, 61, 68, 82, 96, 105, 115, 129, 148, 169, 183, 195, 214, 239, 254, 256, 254, 244, 218, 178, 131, 70, 14, -32]"
1713643447980269518,"[-68, -89, -96, -91, -89, -87, -84, -79, -65, -49, -47, -61, -61, -47, -37, -30, -16, -9, -11, -4, 11, 18, 11, 4, 9, 21, 25, 28, 35, 35, 37, 44, 54, 61, 63, 56, 39, 25, 35, 49, 49, 54, 61, 63, 70, 72, 68, 75, 84, 84, 91, 96, 89, 94, 105, 110, 115, 115, 98, 84, 82, 82, 87, 87, 82, 94, 108, 103, 96, 89, 155, 493, 1008]"
1713643448541368379,"[1204, 649, -148, -176, 176, 84, -42, 56, 56, 0, 44, 72, 49, 58, 75, 75, 87, 91, 87, 103, 117, 127, 143, 157, 169, 185, 209, 237, 258, 251, 232, 225, 211, 164, 103, 39, -14, -49, -75, -94, -91, -84, -84, -84, -77, -61, -58, -65, -56, -44, -37, -21, 0, 2, 0, 7, 14, 23, 30, 32, 37, 35, 35, 44, 54, 54, 51, 54, 58, 63, 70, 72, 61]"
1713643449102497758,"[61, 72, 79, 82, 79, 61, 58, 84, 89, 68, 58, 51, 42, 49, 63, 65, 63, 61, 65, 77, 68, 72, 284, 776, 1164, 870, 9, -324, 39, 105, -91, -23, 58, 7, 7, 39, 35, 32, 47, 58, 70, 77, 77, 82, 96, 117, 131, 138, 155, 181, 206, 223, 232, 237, 244, 256, 237, 178, 108, 44, -7, -44, -70, -87, -101, -103, -89, -72, -75, -84, -87, -77, -61]"
1713643449663596619,"[-44, -32, -25, -25, -21, -7, 4, 7, -2, -14, -14, -2, 9, 4, -21, -35, -18, -2, 0, 7, 16, 14, 14, 25, 35, 37, 39, 39, 28, 21, 35, 44, 47, 49, 49, 54, 77, 98, 105, 98, 82, 65, 68, 72, 70, 68, 72, 77, 84, 84, 79, 65, 115, 425, 961, 1241, 740, -119, -230, 138, 58, -112, -2, 37, -21, 9, 47, 30, 37, 58, 65, 72, 84]"
1713643450224731089,"[91, 105, 124, 134, 150, 174, 176, 181, 216, 244, 242, 237, 230, 225, 209, 152, 79, 16, -47, -105, -136, -145, -150, -150, -143, -129, -117, -110, -101, -94, -79, -61, -56, -51, -37, -30, -28, -14, -7, -9, -4, 4, 7, 14, 21, 25, 23, 25, 32, 39, 37, 28, 21, 25, 35, 42, 47, 49, 49, 51, 58, 65, 68, 68, 68, 68, 75, 87, 89, 82, 79, 75, 56]"
1713643450785855381,"[51, 65, 82, 91, 98, 96, 82, 65, 51, 32, 18, 21, 32, 39, 35, 32, 35, 49, 221, 674, 1147, 1037, 221, -298, -7, 150, -63, -54, 54, 18, 9, 51, 44, 35, 65, 84, 87, 91, 94, 103, 124, 138, 143, 148, 164, 190, 223, 249, 272, 286, 284, 282, 265, 230, 185, 124, 51, 0, -35, -63, -82, -96, -103, -96, -96, -112, -112, -101, -98, -84, -61, -51, -44]"
1713643451346984760,"[-35, -44, -49, -32, -21, -18, -18, -18, -11, 2, 9, 4, -9, -14, -2, 9, 16, 21, 21, 21, 30, 44, 49, 51, 49, 49, 58, 70, 70, 70, 68, 68, 75, 72, 58, 61, 65, 65, 70, 82, 87, 87, 84, 84, 89, 98, 122, 138, 131, 110, 96, 91, 94, 94, 91, 91, 94, 82, 58, 51, 49, 96, 392, 912, 1182, 696, -131, -230, 129, 65, -87, 14, 51]"
1713643451908114139,"[0, 25, 63, 54, 56, 75, 79, 89, 103, 98, 94, 112, 131, 148, 171, 188, 202, 221, 246, 268, 275, 265, 251, 230, 176, 98, 39, -7, -47, -75, -94, -98, -94, -98, -91, -79, -72, -61, -49, -42, -25, -16, -16, -7, 2, 2, 11, 18, 16, 14, -2, -9, 4, 14, 14, 21, 18, 7, 21, 35, 32, 30, 35, 42, 51, 54, 54, 54, 58, 68, 72, 72, 72]"
1713643452469243518,"[77, 79, 87, 91, 89, 87, 82, 87, 103, 115, 94, 68, 61, 65, 70, 70, 56, 47, 54, 65, 72, 68, 110, 381, 867, 1131, 691, -108, -235, 129, 91, -65, 39, 87, 30, 44, 70, 61, 75, 101, 96, 87, 79, 72, 82, 101, 108, 103, 105, 127, 155, 185, 209, 221, 225, 239, 244, 223, 171, 101, 39, 0, -32, -65, -91, -103, -96, -79, -72, -65, -58, -61, -49]"
1713643453030372901,"[-30, -21, -11, -2, -2, -2, -4, -7, 0, -9, -35, -28, -7, -4, 0, 0, -2, 7, 18, 21, 28, 30, 28, 35, 44, 51, 51, 49, 47, 56, 70, 75, 87, 103, 103, 70, 35, 30, 32, 21, 16, 28, 37, 47, 51, 47, 44, 44, 115, 437, 947, 1152, 592, -209, -211, 159, 58, -77, 35, 56, 7, 44, 72, 51, 61, 84, 91, 98, 112, 117, 115, 115, 117]"
1713643453591476849,"[136, 157, 178, 195, 211, 230, 235, 214, 202, 202, 178, 124, 58, 0, -49, -84, -103, -110, -112, -112, -105, -98, -87, -72, -68, -61, -58, -75, -79, -65, -70, -72, -51, -42, -39, -25, -23, -21, -9, 0, 2, 9, 11, 14, 21, 25, 30, 37, 39, 42, 47, 49, 58, 61, 58, 65, 70, 70, 75, 77, 75, 70, 58, 54, 61, 65, 75, 101, 115, 101, 77, 65, 65]"
1713643454152611315,"[70, 70, 70, 72, 75, 77, 82, 75, 65, 188, 595, 1086, 1086, 329, -303, -84, 148, -42, -70, 25, -35, -79, -28, -9, -11, 9, 21, 23, 37, 56, 70, 89, 103, 115, 134, 164, 190, 204, 216, 237, 254, 263, 256, 235, 195, 127, 61, 14, -25, -63, -91, -103, -112, -122, -115, -98, -98, -96, -77, -63, -54, -44, -42, -37, -23, -14, -7, -2, -7, -2, 11, 18, 21]"
1713643454713730520,"[25, 21, 21, 32, 42, 44, 42, 21, 9, 25, 39, 32, 7, -11, 0, 18, 23, 28, 35, 30, 32, 44, 54, 58, 58, 54, 58, 70, 77, 82, 77, 70, 89, 117, 127, 124, 103, 72, 70, 87, 89, 84, 82, 72, 63, 63, 65, 56, 129, 479, 997, 1143, 522, -214, -148, 152, 18, -68, 47, 44, 0, 32, 54, 49, 65, 77, 75, 84, 103, 112, 127, 141, 148]"
1713643455274859899,"[162, 188, 209, 221, 235, 239, 232, 237, 246, 230, 188, 124, 58, 0, -49, -89, -124, -141, -141, -134, -129, -119, -108, -98, -91, -79, -63, -56, -51, -42, -35, -25, -16, -9, -14, -23, -25, -16, -2, -2, -2, 4, 9, 14, 21, 25, 28, 35, 39, 42, 44, 47, 56, 58, 56, 61, 70, 68, 70, 75, 77, 79, 82, 82, 84, 87, 82, 72, 68, 68, 68, 51, 35]"
1713643455835989278,"[42, 63, 79, 96, 103, 87, 63, 47, 32, 37, 49, 44, 49, 61, 58, 61, 58, 134, 482, 994, 1135, 524, -214, -150, 174, 42, -72, 37, 51, 2, 32, 56, 47, 61, 79, 84, 91, 98, 112, 136, 145, 145, 155, 171, 195, 223, 246, 258, 258, 256, 256, 256, 230, 174, 103, 39, -2, -37, -75, -105, -108, -101, -98, -105, -117, -108, -98, -94, -75, -51, -42, -42, -35]"
1713643456397088139,"[-25, -11, 0, 7, -4, -18, -11, 4, 7, 9, 11, 11, 18, 32, 42, 47, 44, 32, 30, 44, 54, 54, 51, 54, 65, 75, 77, 77, 75, 79, 108, 134, 136, 115, 84, 70, 79, 94, 98, 91, 84, 89, 98, 103, 101, 115, 296, 752, 1159, 931, 96, -312, 25, 155, -39, -16, 56, -9, -16, 32, 37, 39, 61, 63, 70, 89, 103, 105, 110, 122, 134, 152, 178]"
1713643456958217522,"[202, 223, 230, 230, 249, 270, 263, 228, 164, 84, 25, -14, -51, -94, -134, -145, -127, -115, -110, -101, -94, -89, -77, -54, -37, -39, -37, -25, -11, 0, 4, 9, 9, 14, 23, 28, 28, 32, 32, 28, 23, 21, 25, 25, 25, 37, 47, 49, 44, 25, 16, 28, 39, 44, 47, 49, 56, 77, 98, 103, 84, 63, 54, 58, 68, 70, 68, 70, 72, 75, 77, 68, 94]"
1713643457519346901,"[350, 877, 1213, 799, -65, -272, 103, 96, -82, 4, 54, -16, -9, 32, 28, 30, 51, 56, 61, 75, 89, 105, 122, 131, 152, 178, 199, 225, 244, 256, 272, 277, 258, 235, 195, 131, 63, -2, -54, -84, -108, -138, -157, -145, -136, -134, -119, -105, -96, -87, -79, -70, -61, -49, -32, -21, -18, -16, -9, -2, 7, 11, 9, 4, 2, 9, 18, 21, 18, 25, 30, 32, 35]"
1713643458080461023,"[39, 39, 42, 42, 49, 56, 58, 51, 37, 28, 37, 51, 51, 49, 49, 51, 58, 65, 68, 63, 65, 77, 87, 89, 91, 75, 51, 49, 56, 61, 58, 51, 51, 49, 30, 25, 25, 32, 242, 747, 1178, 931, 72, -319, 14, 101, -89, -35, 39, -16, -16, 32, 32, 30, 39, 30, 32, 56, 72, 79, 94, 105, 117, 138, 164, 190, 204, 216, 246, 284, 293, 272, 230]"
1713643458641575141,"[169, 101, 35, -21, -54, -87, -119, -122, -110, -105, -103, -112, -129, -127, -115, -105, -94, -91, -89, -68, -56, -54, -42, -32, -35, -39, -51, -56, -42, -39, -42, -28, -14, -9, -4, -4, -4, 7, 16, 23, 25, 25, 25, 37, 44, 37, 21, 18, 32, 39, 44, 49, 47, 49, 58, 61, 61, 68, 68, 58, 61, 68, 72, 96, 103, 87, 98, 122, 122, 112, 98, 82, 79]"
1713643459202704520,"[84, 84, 87, 89, 77, 61, 63, 65, 77, 293, 797, 1175, 853, 2, -296, 63, 110, -94, -49, 18, -25, -21, 16, 14, 23, 54, 56, 58, 82, 94, 98, 117, 131, 150, 181, 202, 216, 225, 242, 268, 284, 279, 261, 230, 169, 94, 35, -14, -58, -84, -96, -96, -91, -94, -91, -82, -75, -63, -54, -49, -37, -28, -21, -7, 7, 7, 9, 16, 11, 2, 4, 11, 16]"
1713643459763803381,"[18, 25, 37, 37, 32, 30, 16, 11, 35, 42, 25, 9, -7, -4, 21, 30, 28, 30, 35, 44, 70, 94, 91, 75, 63, 58, 61, 49, 35, 39, 47, 51, 61, 68, 58, 54, 171, 578, 1081, 1114, 383, -303, -117, 183, 11, -56, 58, 39, 7, 58, 75, 58, 70, 84, 91, 105, 122, 131, 138, 148, 159, 181, 211, 239, 254, 265, 289, 312, 324, 308, 258, 190, 119]"
1713643460324932764,"[47, -11, -61, -117, -164, -178, -174, -162, -155, -152, -143, -129, -112, -101, -91, -84, -70, -56, -49, -54, -51, -44, -35, -21, -11, -4, 0, -4, -2, 11, 21, 23, 21, 21, 30, 37, 39, 49, 54, 44, 49, 63, 65, 65, 63, 58, 63, 75, 82, 84, 79, 63, 63, 77, 84, 82, 79, 77, 84, 108, 127, 129, 112, 91, 82, 87, 87, 84, 82, 72, 56, 44, 56]"
1713643460886062143,"[54, 30, 134, 545, 1098, 1211, 496, -265, -141, 152, -30, -115, -4, -28, -61, -7, 11, 0, 7, 9, 9, 30, 49, 47, 47, 54, 65, 79, 105, 134, 159, 188, 216, 237, 254, 254, 235, 197, 138, 77, 25, -18, -61, -87, -91, -89, -84, -79, -72, -65, -54, -37, -32, -30, -18, -9, -7, 2, 11, 14, 21, 28, 28, 11, -7, -4, 11, 11, 14, 21, 25, 25, 30]"
1713643461447176265,"[30, 21, 18, 28, 30, 35, 39, 39, 44, 39, 23, 30, 44, 42, 44, 51, 51, 58, 63, 63, 68, 72, 72, 79, 84, 84, 84, 87, 89, 94, 96, 96, 94, 87, 84, 94, 98, 94, 98, 117, 134, 136, 122, 101, 87, 84, 91, 96, 96, 91, 91, 94, 96, 87, 105, 331, 811, 1173, 872, 21, -303, 37, 70, -127, -68, -21, -84, -70, -32, -39, -30, -2, 4]"
1713643462008290383,"[7, 16, 35, 51, 70, 84, 87, 87, 115, 155, 188, 214, 230, 244, 263, 270, 251, 206, 138, 75, 32, -2, -28, -47, -70, -77, -63, -51, -44, -35, -32, -28, -9, 4, 9, 11, 11, 16, 30, 42, 47, 44, 42, 47, 56, 63, 70, 65, 54, 39, 25, 28, 39, 37, 30, 35, 32, 28, 35, 37, 28, 35, 49, 54, 58, 56, 49, 61, 72, 70, 72, 72, 72]"
1713643462569419762,"[77, 89, 91, 84, 79, 82, 89, 96, 98, 89, 72, 79, 108, 122, 108, 72, 47, 44, 54, 58, 68, 72, 65, 68, 77, 77, 79, 254, 710, 1143, 978, 157, -319, -16, 117, -98, -82, 18, -18, -30, 7, 0, -21, -16, -2, 9, 16, 18, 23, 44, 65, 82, 108, 138, 178, 218, 242, 261, 284, 301, 296, 282, 237, 164, 98, 44, 4, -23, -49, -63, -61, -54, -44]"
1713643463130549145,"[-35, -32, -28, -18, -16, -14, -21, -39, -37, -14, -11, -9, 7, 11, 11, 23, 28, 30, 35, 37, 42, 47, 44, 51, 58, 58, 61, 61, 63, 70, 70, 68, 70, 75, 70, 56, 32, 35, 56, 63, 68, 65, 44, 30, 37, 42, 39, 47, 51, 51, 61, 68, 63, 61, 159, 529, 1018, 1091, 413, -305, -185, 124, -25, -122, -16, -18, -58, -16, 7, -7, -7, -4, 2]"
1713643463691653093,"[18, 37, 51, 58, 58, 65, 98, 134, 159, 190, 218, 246, 272, 289, 284, 258, 206, 143, 82, 30, -16, -54, -75, -75, -70, -65, -63, -75, -94, -94, -84, -72, -61, -56, -51, -32, -16, -7, -2, 0, 4, 14, 25, 30, 32, 25, 28, 37, 44, 47, 44, 39, 42, 51, 58, 63, 63, 56, 56, 68, 72, 61, 47, 44, 51, 61, 65, 72, 72, 68, 70, 87, 108]"
1713643464252777385,"[127, 122, 98, 84, 79, 82, 84, 77, 70, 75, 87, 89, 84, 56, 47, 261, 764, 1192, 964, 94, -355, -47, 58, -131, -89, -14, -72, -77, -32, -42, -51, -32, -21, -14, 4, 23, 32, 42, 58, 84, 112, 141, 166, 195, 221, 249, 272, 282, 275, 246, 199, 138, 72, 9, -32, -56, -72, -72, -63, -58, -58, -51, -42, -30, -18, -9, -7, -2, 4, 16, 25, 30, 32]"
1713643464813906764,"[37, 39, 47, 51, 54, 54, 51, 54, 56, 63, 65, 58, 37, 14, 9, 21, 11, -4, 4, 16, 18, 25, 30, 32, 37, 42, 47, 54, 54, 58, 63, 63, 68, 70, 65, 70, 77, 75, 77, 82, 82, 84, 87, 79, 84, 103, 105, 94, 77, 65, 65, 70, 70, 75, 79, 77, 79, 82, 68, 82, 298, 790, 1213, 971, 108, -277, 63, 136, -65, -14, 63, 16, 18]"
1713643465375025973,"[49, 30, 23, 35, 37, 23, 0, -7, -14, -14, 14, 39, 54, 77, 108, 138, 176, 202, 216, 225, 230, 214, 176, 122, 58, 2, -32, -54, -65, -72, -79, -77, -65, -51, -51, -61, -58, -44, -35, -23, -9, 0, 0, 2, 14, 25, 30, 32, 30, 32, 42, 44, 47, 54, 51, 49, 58, 72, 77, 70, 63, 65, 77, 82, 82, 84, 75, 63, 68, 82, 70, 42, 28]"
1713643465936135004,"[39, 49, 54, 61, 56, 32, 30, 49, 58, 58, 58, 51, 54, 77, 101, 115, 117, 96, 75, 75, 82, 82, 75, 72, 84, 84, 68, 68, 68, 79, 317, 830, 1199, 872, 14, -289, 79, 138, -47, 11, 70, 11, 28, 79, 75, 65, 68, 68, 84, 101, 105, 98, 96, 103, 117, 138, 166, 188, 202, 221, 249, 270, 279, 263, 214, 157, 110, 54, -4, -44, -75, -91, -87]"
1713643466497264383,"[-84, -84, -77, -70, -65, -54, -37, -30, -42, -44, -30, -21, -14, -2, 2, 4, 4, -4, 0, 14, 16, 11, 14, 23, 35, 35, 35, 39, 44, 54, 63, 58, 56, 63, 65, 65, 75, 77, 75, 77, 82, 84, 87, 91, 105, 124, 129, 112, 89, 68, 63, 72, 72, 72, 77, 75, 54, 37, 35, 42, 188, 625, 1114, 1060, 270, -324, -65, 157, -42, -58, 54, 21, -2]"
1713643467058393766,"[30, 23, 16, 35, 47, 23, 4, 16, 14, 9, 32, 56, 72, 103, 138, 164, 195, 221, 239, 251, 249, 225, 181, 115, 47, 2, -35, -70, -89, -91, -89, -79, -72, -68, -63, -56, -44, -30, -23, -25, -35, -30, -14, 0, 2, 7, 9, 14, 14, 0, -16, -9, -2, -2, 9, 21, 21, 21, 23, 28, 37, 44, 47, 44, 42, 51, 61, 65, 65, 63, 61, 61, 54]"
1713643467619492627,"[51, 58, 54, 51, 63, 70, 75, 72, 56, 37, 47, 63, 63, 63, 61, 61, 68, 82, 101, 115, 112, 98, 87, 77, 79, 79, 72, 72, 82, 89, 87, 70, 42, 39, 218, 698, 1187, 1048, 183, -345, -47, 89, -150, -157, -56, -89, -94, -44, -37, -44, -32, -14, 2, 16, 32, 39, 47, 68, 94, 115, 141, 162, 178, 197, 223, 246, 258, 254, 235, 206, 159, 98, 47]"
1713643468180622006,"[0, -35, -49, -49, -47, -47, -49, -42, -30, -18, -9, -14, -28, -23, -4, 7, 11, 18, 16, 18, 28, 35, 23, 14, 18, 23, 28, 37, 44, 42, 39, 44, 51, 58, 56, 37, 25, 32, 44, 49, 51, 56, 56, 56, 63, 70, 72, 70, 72, 75, 77, 87, 87, 77, 68, 61, 68, 77, 75, 77, 79, 82, 84, 89, 89, 89, 91, 94, 98, 101, 101, 112, 131]"
1713643468741720867,"[138, 129, 115, 94, 89, 87, 72, 70, 68, 49, 37, 37, 18, -11, 91, 498, 1016, 1063, 341, -331, -157, 94, -82, -124, -11, -28, -51, -25, -35, -37, -9, 2, 7, 23, 42, 54, 65, 84, 101, 122, 150, 178, 202, 225, 244, 251, 258, 265, 258, 228, 178, 122, 72, 25, -14, -35, -44, -44, -39, -35, -32, -28, -21, -9, 4, 11, 14, 18, 25, 37, 44, 47, 49]"
1713643469302850246,"[51, 54, 61, 63, 49, 30, 18, 14, 25, 37, 42, 39, 37, 42, 51, 58, 58, 58, 56, 54, 39, 32, 42, 42, 39, 51, 61, 63, 65, 63, 65, 72, 79, 84, 89, 87, 77, 72, 82, 91, 89, 82, 82, 89, 101, 108, 103, 96, 108, 124, 124, 115, 94, 63, 47, 51, 51, 44, 37, 35, 42, 51, 44, 61, 272, 747, 1147, 905, 54, -341, 7, 101, -98]"
1713643469863979629,"[-44, 47, -2, -7, 30, 32, 35, 61, 72, 56, 49, 68, 75, 65, 79, 105, 122, 152, 188, 223, 254, 277, 286, 298, 305, 293, 251, 174, 94, 47, 18, -16, -44, -49, -44, -42, -32, -25, -23, -21, -11, 2, 11, 21, 25, 32, 37, 42, 49, 58, 63, 61, 61, 65, 72, 75, 68, 68, 72, 61, 51, 61, 65, 58, 61, 70, 75, 75, 75, 72, 77, 87, 89]"
1713643470425083577,"[84, 87, 89, 89, 79, 47, 9, 18, 54, 56, 37, 14, -11, -23, -21, -18, -14, -11, -14, -18, -14, -14, -2, 157, 590, 1041, 966, 192, -371, -101, 124, -65, -82, 23, -2, -18, 18, 28, 30, 49, 61, 65, 77, 96, 112, 117, 134, 155, 174, 202, 223, 235, 261, 291, 308, 319, 315, 289, 242, 176, 108, 58, 14, -21, -39, -49, -49, -42, -35, -28, -28, -42, -54]"
1713643470986207869,"[-35, -18, -18, -11, -2, 7, 21, 23, 23, 21, 18, 21, 30, 32, 28, 14, -2, 7, 23, 23, 21, 25, 32, 39, 47, 49, 49, 49, 54, 61, 65, 68, 65, 63, 65, 72, 79, 82, 75, 72, 79, 77, 63, 61, 72, 87, 103, 108, 96, 75, 58, 56, 58, 51, 49, 54, 49, 39, 35, 21, 35, 258, 762, 1150, 823, -63, -381, -16, 21, -174, -94, -16, -68]"
1713643471547337248,"[-65, -37, -39, -25, 0, 11, 7, -2, 9, 37, 56, 75, 94, 108, 136, 174, 209, 237, 258, 265, 275, 279, 261, 216, 150, 79, 32, 4, -21, -37, -47, -54, -56, -58, -51, -37, -35, -35, -21, -7, 2, 9, 9, 11, 23, 35, 39, 44, 42, 39, 47, 56, 58, 58, 56, 42, 23, 21, 35, 37, 32, 35, 44, 51, 47, 32, 28, 35, 42, 47, 54, 54, 54]"
1713643472108466627,"[56, 63, 70, 72, 70, 68, 70, 75, 82, 77, 56, 47, 56, 65, 68, 70, 70, 68, 72, 79, 84, 84, 82, 77, 65, 68, 79, 77, 77, 96, 115, 119, 108, 77, 54, 56, 58, 56, 49, 39, 35, 28, 21, 14, 23, 216, 700, 1154, 950, 70, -378, -44, 65, -141, -98, -11, -75, -79, -23, -21, -25, 2, 16, 18, 37, 56, 65, 82, 101, 117, 141, 166, 190]"
1713643472669590923,"[218, 246, 268, 286, 298, 293, 275, 228, 162, 110, 63, 14, -18, -37, -54, -68, -68, -58, -51, -44, -32, -18, -11, -7, 2, 9, 16, 28, 32, 35, 37, 42, 49, 56, 58, 56, 56, 58, 63, 70, 68, 44, 21, 23, 42, 44, 35, 23, 21, 32, 39, 42, 47, 44, 44, 47, 56, 63, 68, 65, 61, 68, 75, 77, 82, 82, 75, 77, 87, 91, 91, 87, 84]"
1713643473230694867,"[89, 98, 103, 98, 75, 51, 51, 63, 56, 49, 42, 39, 54, 79, 91, 79, 54, 25, 11, 11, 16, 14, 11, 14, 23, 30, 35, 25, 25, 225, 714, 1147, 964, 127, -357, -47, 103, -105, -96, -7, -44, -47, -2, 4, 14, 30, 32, 44, 65, 77, 91, 105, 110, 131, 171, 199, 218, 239, 265, 293, 317, 326, 324, 303, 261, 204, 152, 103, 54, 11, -25, -47, -35]"
1713643473791824250,"[-25, -35, -35, -25, -16, -4, 4, -4, -23, -18, 4, 16, 18, 21, 21, 25, 32, 42, 49, 49, 39, 39, 51, 56, 54, 54, 39, 11, 11, 14, 7, 11, 18, 14, 18, 35, 37, 28, 35, 44, 49, 47, 32, 32, 42, 37, 37, 32, 21, 21, 35, 49, 51, 32, 9, 4, 11, 9, 11, 23, 28, 14, 9, 18, 21, 61, 329, 839, 1147, 724, -117, -303, 75]"
1713643474352923111,"[77, -94, -11, 44, -4, 9, 47, 44, 47, 63, 63, 49, 63, 89, 103, 112, 129, 150, 162, 159, 166, 202, 239, 258, 275, 286, 279, 251, 192, 117, 61, 14, -30, -54, -65, -72, -63, -54, -51, -49, -42, -32, -18, -11, -7, 2, 9, 18, 35, 42, 37, 35, 35, 32, 35, 42, 49, 47, 44, 51, 58, 56, 56, 56, 56, 65, 77, 72, 65, 65, 72, 79, 82]"
1713643474914052490,"[79, 79, 77, 79, 89, 89, 77, 54, 35, 39, 49, 28, -9, -14, 0, 11, 18, 14, -7, -23, -23, -16, -9, 0, 4, 2, 2, 14, 16, 21, 181, 632, 1121, 1051, 242, -338, -65, 129, -77, -75, 39, 4, -14, 16, 14, 16, 44, 56, 58, 65, 79, 98, 117, 131, 145, 159, 188, 223, 254, 282, 303, 312, 322, 326, 310, 268, 202, 127, 75, 37, 9, -9, -23]"
1713643475475181869,"[-32, -32, -32, -47, -63, -72, -63, -47, -32, -23, -18, -32, -39, -21, -4, 2, 9, 9, 9, 21, 32, 37, 39, 37, 37, 44, 54, 56, 56, 54, 51, 61, 68, 68, 61, 51, 54, 61, 68, 70, 72, 68, 68, 77, 84, 87, 82, 79, 82, 87, 91, 94, 89, 89, 89, 94, 98, 98, 96, 91, 89, 98, 110, 94, 75, 82, 89, 87, 75, 30, -21, -30, -28]"
1713643476036311248,"[-28, -18, -16, -16, -14, -11, -7, -18, -11, 221, 752, 1159, 834, -51, -362, 2, 37, -152, -75, -4, -58, -44, 2, -4, -2, 11, 4, 16, 39, 47, 58, 79, 94, 115, 143, 164, 192, 225, 251, 277, 296, 303, 301, 282, 237, 181, 119, 63, 23, -4, -25, -30, -30, -28, -23, -18, -16, -16, -21, -18, -7, -11, -25, -21, 0, 4, 0, 4, 14, 28, 35, 32, 32]"
1713643476597410109,"[32, 37, 44, 51, 49, 35, 16, 23, 42, 42, 37, 39, 42, 49, 56, 56, 44, 32, 32, 47, 58, 58, 54, 54, 61, 70, 77, 75, 70, 72, 77, 79, 87, 94, 87, 82, 87, 91, 94, 96, 89, 84, 98, 110, 108, 101, 96, 98, 96, 94, 87, 65, 37, 21, 4, -23, -25, -16, -21, -23, -9, -4, -7, 129, 559, 1060, 1039, 268, -352, -122, 105, -84, -96]"
1713643477158539492,"[21, -11, -47, -21, -16, -7, 16, 21, 11, 16, 39, 63, 77, 98, 112, 124, 159, 204, 232, 263, 289, 298, 312, 324, 310, 272, 209, 134, 72, 30, 0, -18, -37, -51, -42, -28, -25, -18, -16, -30, -35, -18, -7, 0, 4, 7, 9, -2, -16, -4, 7, 4, 9, 21, 28, 25, 23, 28, 37, 42, 42, 44, 49, 47, 47, 54, 61, 58, 56, 56, 58, 58, 49]"
1713643477719668871,"[42, 42, 49, 56, 61, 63, 63, 61, 63, 68, 70, 51, 21, 21, 42, 56, 58, 49, 25, -7, -21, -9, -2, -4, -4, 0, 2, 9, 14, 4, 9, 211, 714, 1161, 926, 32, -388, -18, 87, -141, -112, -30, -72, -65, -23, -21, -18, 0, 14, 25, 39, 56, 70, 82, 101, 124, 145, 171, 206, 237, 268, 293, 301, 293, 286, 263, 216, 148, 82, 28, -11, -42, -54]"
1713643478280767732,"[-56, -58, -56, -49, -42, -32, -25, -23, -21, -30, -32, -16, -4, -2, 4, 11, 18, 28, 35, 39, 44, 44, 35, 35, 44, 42, 39, 42, 47, 54, 58, 51, 35, 23, 32, 44, 44, 44, 47, 51, 58, 65, 68, 65, 65, 68, 77, 82, 72, 61, 58, 65, 68, 56, 35, 21, 14, 9, 14, 23, 21, 16, 16, 25, 32, 35, 37, 30, 30, 39, 47, 51, 56]"
1713643478841897111,"[51, 49, 68, 91, 103, 96, 70, 54, 54, 61, 65, 65, 58, 49, 54, 65, 65, 37, 70, 392, 966, 1253, 714, -155, -251, 82, -11, -138, -21, -7, -68, -28, 11, 2, 14, 32, 28, 37, 63, 75, 87, 101, 108, 127, 150, 164, 188, 218, 237, 263, 289, 301, 293, 268, 216, 157, 105, 56, 14, -21, -42, -44, -39, -35, -30, -32, -30, -18, -4, 2, 4, 4, 7]"
1713643479403026490,"[18, 28, 32, 35, 23, 16, 28, 39, 37, 23, 9, 11, 23, 28, 30, 32, 23, 4, -9, 2, 14, 11, 11, 18, 25, 32, 35, 23, 14, 18, 28, 30, 21, 11, 7, -7, -23, -21, -14, -16, -11, -7, -2, 4, 4, 2, 7, 7, 11, 21, 28, 37, 25, 25, 56, 58, 44, 51, 54, 47, 49, 70, 94, 84, 65, 72, 79, 89, 105, 110, 96, 70, 61]"
1713643479964125351,"[56, 44, 63, 101, 84, 68, 79, 63, 30, 49, 230, 663, 1112, 994, 171, -341, -30, 119, -91, -68, 37, -4, -16, 30, 28, 25, 54, 51, 42, 61, 72, 79, 103, 122, 127, 143, 164, 197, 249, 286, 298, 315, 329, 329, 324, 305, 258, 148, 39, 18, 25, 21, 30, 44, 21, -56, -58, 68, 54, -103, -89, 4, 23, 58, 32, -42, -7, 58, 54, 37, 18, 25, 72]"
1713643480525254734,"[110, 77, 14, 18, 44, 0, -25, 47, 75, 0, -35, -2, 16, -9, -18, -11, -37, -47, -63, -91, -56, -23, -35, -32, 21, 65, -18, -112, -37, 32, 14, 47, 32, -21, 28, 35, -9, 68, 103, 30, 28, 65, 56, 51, 54, 44, 47, 58, 65, 70, 51, 23, 25, 136, 505, 997, 1086, 439, -261, -150, 155, 16, -63, 37, 23, 0, 58, 84, 58, 35, 39, 54, 63]"
1713643481086353595,"[77, 98, 103, 115, 148, 171, 195, 228, 246, 265, 308, 355, 345, 291, 261, 249, 192, 119, 58, -7, -58, -75, -70, -58, -42, -56, -84, -77, -42, -4, 0, -30, -49, -37, -23, 2, 49, 68, 42, 42, 39, 16, 35, 61, 42, 25, 37, 70, 79, 18, 14, 91, 79, 35, 47, 39, 7, -4, 9, 21, 11, 9, -9, -39, -25, 7, -2, -4, 23, 44, 54, 44, 21]"
1713643481647482974,"[2, -2, 7, 14, 11, 23, 42, 42, 39, 42, 21, 94, 458, 959, 1077, 458, -249, -169, 138, 16, -70, 37, 35, -7, 32, 54, 42, 51, 65, 75, 82, 87, 91, 94, 108, 134, 152, 174, 204, 232, 263, 301, 329, 333, 331, 308, 265, 211, 141, 68, 23, -9, -32, -39, -56, -84, -89, -70, -68, -75, -54, -21, -28, -42, -23, -2, -7, -9, -2, 2, 11, 25, 30]"
1713643482208581835,"[28, 28, 32, 44, 44, 42, 47, 35, 16, 25, 37, 32, 32, 44, 44, 44, 54, 54, 51, 58, 58, 58, 63, 54, 32, 25, 39, 58, 58, 54, 54, 56, 58, 63, 68, 65, 54, 47, 51, 51, 54, 63, 63, 56, 49, 35, 9, -21, -51, -47, -25, -18, -18, -14, -14, -25, -47, 21, 373, 943, 1199, 623, -235, -272, 82, -25, -162, -44, -18, -68, -32, 2, -11]"
1713643482769711214,"[-2, 25, 35, 39, 49, 51, 61, 89, 108, 122, 131, 141, 174, 211, 223, 235, 256, 256, 246, 230, 185, 124, 61, 2, -30, -47, -58, -61, -68, -70, -56, -39, -32, -28, -25, -21, -11, 0, 9, 0, -23, -28, -7, 9, 11, 18, 11, -2, 9, 25, 25, 18, 23, 28, 30, 35, 42, 42, 42, 42, 47, 56, 58, 51, 49, 61, 72, 70, 70, 70, 65, 65, 72]"
1713643483330840593,"[77, 72, 72, 79, 72, 58, 56, 54, 39, 30, 37, 51, 54, 49, 49, 58, 65, 68, 70, 75, 75, 70, 75, 79, 82, 79, 79, 84, 70, 54, 61, 72, 54, 14, 0, 16, 11, -7, -2, 16, 23, 28, 21, -2, -9, 0, 4, 7, 11, 14, 21, 25, 21, 14, 108, 475, 1006, 1164, 522, -237, -171, 127, -18, -101, 21, 18, -23, 11, 37, 18, 14, 32, 42]"
1713643483891969976,"[47, 65, 77, 82, 87, 91, 112, 145, 166, 192, 221, 246, 275, 298, 303, 298, 279, 232, 169, 117, 70, 23, -9, -28, -44, -65, -72, -63, -63, -63, -44, -25, -23, -23, -16, -7, 4, 16, 21, 21, 23, 28, 37, 44, 44, 42, 47, 49, 54, 61, 65, 61, 54, 63, 72, 75, 75, 70, 65, 70, 75, 65, 56, 61, 65, 68, 75, 87, 87, 75, 75, 84, 75]"
1713643484453068837,"[65, 72, 68, 58, 54, 51, 47, 25, -2, -2, 16, 23, 18, 23, 23, 21, 32, 30, 7, -2, -2, -2, 7, 16, 28, 35, 30, 35, 56, 63, 68, 84, 98, 96, 84, 79, 77, 70, 65, 72, 82, 84, 89, 96, 89, 72, 108, 366, 865, 1208, 853, 2, -270, 89, 117, -77, -7, 65, 18, 28, 68, 61, 58, 77, 91, 101, 112, 115, 119, 134, 155, 176, 190]"
1713643485014198216,"[206, 235, 268, 303, 333, 338, 331, 326, 319, 279, 202, 94, 2, -25, -37, -61, -72, -77, -82, -75, -56, -47, -44, -35, -28, -21, -7, 7, 9, 7, -2, -2, 14, 25, 21, 9, 2, 2, -7, -9, 0, -2, -11, -21, -23, -7, 2, -2, 0, 7, 11, 23, 25, 23, 25, 32, 32, 39, 47, 47, 47, 56, 70, 65, 58, 68, 77, 72, 75, 82, 79, 82, 82]"
1713643485575327595,"[87, 96, 75, 44, 49, 77, 87, 75, 47, 18, 21, 37, 37, 37, 42, 47, 58, 63, 56, 54, 150, 526, 1041, 1150, 491, -246, -152, 166, 25, -68, 51, 54, 7, 37, 51, 37, 51, 68, 72, 84, 101, 108, 117, 127, 141, 169, 197, 218, 242, 270, 298, 326, 341, 333, 317, 286, 228, 159, 101, 47, -2, -30, -37, -42, -44, -49, -63, -75, -84, -91, -82, -63, -56]"
1713643486136426456,"[-56, -44, -30, -32, -35, -39, -54, -54, -44, -44, -51, -61, -65, -54, -42, -42, -39, -39, -35, -28, -21, -9, -4, -14, -16, -18, -21, -9, 0, -4, -2, 7, 14, 28, 35, 23, 25, 42, 47, 49, 54, 49, 51, 63, 68, 75, 75, 68, 75, 79, 82, 91, 89, 79, 84, 94, 91, 77, 65, 70, 72, 68, 79, 84, 56, 35, 42, 54, 58, 61, 58, 56, 63]"
1713643486697555835,"[75, 72, 70, 218, 660, 1152, 1088, 291, -289, -54, 124, -61, -56, 47, 9, -18, 7, 7, 14, 44, 49, 39, 54, 79, 96, 108, 115, 127, 145, 174, 204, 232, 258, 279, 296, 315, 324, 312, 275, 218, 152, 94, 54, 21, -9, -30, -35, -35, -37, -42, -42, -32, -39, -54, -56, -39, -30, -32, -23, -2, 4, 4, 14, 21, 18, 16, 25, 37, 42, 39, 39, 47, 47]"
1713643487258685218,"[30, 21, 32, 42, 35, 23, 18, 9, -9, -18, -14, -14, -35, -42, -4, 14, 0, 2, -2, -16, 9, 25, 11, 14, 23, 28, 30, 32, 39, 37, 28, 44, 72, 65, 39, 51, 84, 72, 37, 28, 44, 39, 32, 91, 110, 35, 9, 37, 18, -11, 21, 96, 138, 108, 72, 70, 75, 77, 68, 58, 49, 61, 91, 103, 70, 32, 87, 376, 874, 1206, 849, 18, -244]"
1713643487819814597,"[87, 112, -68, -7, 58, 2, 18, 77, 56, 21, 28, 49, 68, 82, 84, 84, 98, 122, 138, 157, 176, 197, 230, 261, 286, 301, 303, 301, 289, 251, 185, 110, 49, 2, -23, -35, -42, -47, -63, -82, -70, -51, -47, -39, -30, -28, -16, 0, 7, 7, 2, 7, 21, 32, 42, 39, 35, 39, 49, 56, 61, 61, 44, 35, 39, 35, 25, 30, 35, 30, 25, 23, 18]"
1713643488380928719,"[2, -9, -7, 7, 11, 14, 11, 9, 16, 23, 21, 28, 18, -7, 2, 25, 25, 23, 30, 30, 30, 23, 23, 35, 35, 25, 37, 54, 58, 58, 54, 39, 25, 35, 56, 68, 77, 77, 58, 51, 63, 63, 51, 54, 70, 75, 82, 84, 65, 112, 418, 936, 1197, 719, -105, -228, 129, 84, -63, 28, 65, 16, 37, 75, 72, 70, 84, 94, 101, 117, 131, 138, 145]"
1713643488942042837,"[162, 185, 204, 225, 256, 277, 303, 336, 350, 338, 326, 308, 249, 162, 103, 56, 4, -32, -54, -61, -54, -49, -44, -42, -44, -63, -68, -49, -37, -39, -28, -9, 4, 11, 16, 23, 23, 30, 32, 21, 21, 30, 28, 16, 9, -2, -14, -21, -14, -7, -9, -9, -9, -4, 7, 18, 16, 9, 16, 28, 25, 25, 32, 42, 44, 44, 51, 54, 49, 65, 94, 105, 94]"
1713643489503172216,"[79, 61, 56, 58, 44, 32, 32, 23, 23, 37, 44, 35, 58, 298, 801, 1171, 844, -7, -324, 11, 70, -103, -42, 21, -28, -14, 28, 28, 32, 49, 54, 63, 82, 94, 108, 119, 115, 124, 159, 192, 218, 244, 272, 301, 322, 329, 322, 289, 235, 174, 112, 61, 11, -21, -37, -44, -39, -32, -30, -35, -32, -21, -7, 0, 4, 2, 9, 9, 4, 14, 21, 16, 18]"
1713643490064271077,"[30, 35, 37, 32, 2, -14, 4, 16, 16, 21, 11, -9, -7, 11, 16, 11, 9, 14, 28, 44, 44, 32, 23, 28, 37, 37, 23, 2, -7, -7, -7, -4, 2, -2, -7, 2, 11, 16, 21, 18, 18, 30, 37, 42, 61, 75, 79, 75, 63, 51, 54, 51, 47, 54, 61, 68, 75, 68, 49, 25, 117, 515, 1072, 1204, 524, -228, -136, 150, -2, -84, 25, 25, -4]"
1713643490625400460,"[35, 49, 32, 32, 28, 28, 44, 42, 32, 51, 75, 96, 122, 143, 162, 192, 228, 254, 261, 268, 279, 275, 246, 204, 148, 82, 30, 2, -21, -35, -39, -42, -37, -28, -16, -11, -7, 2, 9, 11, 21, 30, 32, 35, 42, 47, 51, 54, 51, 51, 42, 32, 42, 54, 51, 49, 54, 49, 49, 61, 63, 58, 58, 68, 72, 68, 65, 72, 72, 54, 32, 32, 39]"
1713643491186509495,"[44, 51, 56, 54, 54, 58, 68, 70, 58, 44, 28, 16, 16, 16, 16, 21, 16, 9, 11, 14, 0, -4, 2, 7, 11, 16, 16, 21, 21, 25, 37, 42, 42, 51, 70, 87, 84, 68, 51, 47, 44, 35, 32, 44, 44, 42, 49, 51, 44, 112, 460, 1008, 1218, 627, -164, -166, 145, 23, -84, 28, 44, -7, -2, 4, 9, 28, 44, 51, 56, 65, 84, 98, 105]"
1713643491747628700,"[108, 122, 143, 169, 206, 242, 265, 270, 265, 277, 286, 265, 221, 162, 98, 49, 16, -7, -21, -35, -39, -28, -14, -11, -11, -7, 0, 11, 21, 30, 42, 32, 21, 30, 47, 54, 51, 47, 51, 61, 61, 65, 65, 56, 61, 72, 72, 72, 75, 70, 68, 79, 84, 82, 63, 42, 54, 63, 61, 65, 65, 63, 70, 70, 58, 51, 54, 47, 37, 42, 49, 51, 51]"
