time,ecg
1713644213062691000,"[11655, 12161, 12664, 13111, 13525, 13932, 14301, 14649, 15009, 15322, 15571, 15839, 16110, 16343, 16573, 16773, 16914, 17077, 17248, 17387, 17526, 17632, 17693, 17777, 17869, 17937, 18006, 18046, 18086, 18130, 18097, 18069, 18076, 18034, 17984, 17970, 17949, 17914, 17888, 17815, 17723, 17681, 17646, 17568, 17467, 17363, 17267, 17199, 17114, 17004, 16917, 16778, 16613, 16519, 16425, 16307, 16195, 16056, 15912, 15799, 15682, 15560, 15463, 15329, 15134, 14995, 14903, 14772, 14624, 14485, 14339, 14207, 14087]"
1713644213623820379,"[13960, 13817, 13666, 13525, 13398, 13276, 13144, 13008, 12881, 12747, 12606, 12488, 12349, 12147, 11982, 11872, 11742, 11613, 11491, 11357, 11237, 11131, 10957, 10792, 10936, 11369, 11632, 11178, 10155, 9703, 9967, 9892, 9560, 9506, 9473, 9313, 9198, 9118, 9000, 8885, 8800, 8706, 8593, 8497, 8405, 8306, 8219, 8130, 8031, 7947, 7876, 7796, 7730, 7678, 7603, 7514, 7436, 7359, 7272, 7161, 7022, 6876, 6724, 6573, 6434, 6293, 6173, 6089, 5999, 5907, 5823, 5743, 5660]"
1713644214184965019,"[5578, 5508, 5437, 5364, 5294, 5228, 5171, 5101, 5033, 4969, 4880, 4804, 4760, 4694, 4588, 4503, 4456, 4407, 4350, 4296, 4245, 4193, 4134, 4085, 4049, 3998, 3946, 3901, 3854, 3807, 3755, 3706, 3664, 3619, 3570, 3530, 3492, 3450, 3405, 3360, 3316, 3280, 3247, 3198, 3151, 3113, 3064, 3026, 2998, 2956, 2913, 2876, 2845, 2815, 2779, 2742, 2704, 2671, 2643, 2617, 2584, 2549, 2521, 2509, 2488, 2448, 2396, 2344, 2304, 2274, 2253, 2231, 2203]"
1713644214746109655,"[2170, 2137, 2114, 2088, 2048, 2128, 2500, 2956, 2965, 2206, 1453, 1611, 1902, 1695, 1608, 1721, 1688, 1625, 1643, 1634, 1606, 1611, 1611, 1592, 1575, 1566, 1564, 1564, 1561, 1556, 1549, 1547, 1564, 1580, 1594, 1608, 1603, 1594, 1596, 1596, 1564, 1491, 1397, 1307, 1232, 1161, 1093, 1034, 987, 957, 945, 940, 931, 917, 903, 900, 903, 900, 898, 889, 877, 877, 879, 877, 872, 863, 851, 844, 832, 816, 811, 790, 754]"
1713644215307239034,"[752, 764, 757, 750, 743, 733, 731, 736, 733, 719, 693, 682, 689, 691, 689, 684, 677, 667, 670, 674, 670, 665, 653, 649, 649, 651, 646, 632, 618, 616, 618, 618, 613, 609, 602, 597, 597, 597, 595, 587, 580, 576, 576, 573, 571, 564, 557, 555, 555, 557, 552, 547, 559, 569, 562, 547, 526, 505, 493, 479, 468, 468, 468, 456, 432, 409, 399, 439, 700, 1234, 1622, 1251, 326]"
1713644215868398935,"[42, 432, 453, 246, 322, 388, 322, 310, 338, 333, 333, 350, 357, 359, 366, 378, 385, 392, 397, 397, 418, 444, 460, 489, 522, 547, 573, 595, 602, 599, 578, 533, 470, 399, 331, 277, 239, 214, 202, 197, 192, 195, 197, 197, 199, 192, 190, 197, 199, 192, 178, 162, 157, 152, 152, 159, 162, 145, 119, 122, 136, 138, 145, 152, 150, 152, 155, 164, 171, 174, 174, 176, 181]"
1713644216429528314,"[190, 195, 197, 190, 174, 169, 181, 192, 188, 174, 164, 171, 183, 190, 190, 190, 190, 195, 204, 209, 211, 209, 206, 216, 223, 225, 228, 223, 221, 228, 232, 237, 237, 230, 230, 235, 242, 244, 244, 237, 230, 225, 218, 223, 230, 223, 218, 237, 258, 268, 239, 192, 181, 185, 185, 190, 192, 183, 185, 197, 204, 202, 190, 223, 508, 1048, 1389, 976, 75, -157, 242, 242, 47]"
1713644216990667867,"[124, 164, 101, 127, 166, 155, 159, 176, 171, 178, 202, 211, 214, 206, 199, 223, 254, 277, 298, 319, 348, 385, 416, 432, 442, 442, 418, 378, 322, 254, 190, 129, 75, 42, 37, 37, 32, 25, 32, 44, 54, 65, 61, 32, 21, 42, 56, 49, 42, 44, 39, 30, 35, 42, 42, 39, 47, 54, 54, 58, 63, 61, 63, 65, 63, 56, 58, 63, 61, 65, 79, 84, 82]"
1713644217551817590,"[87, 94, 101, 108, 108, 108, 112, 112, 117, 124, 110, 96, 110, 117, 112, 119, 124, 122, 127, 131, 136, 138, 138, 127, 115, 119, 129, 134, 136, 138, 145, 152, 171, 188, 181, 157, 117, 87, 98, 115, 108, 115, 124, 117, 119, 134, 131, 157, 420, 940, 1293, 931, 35, -251, 159, 199, -25, 47, 127, 72, 82, 122, 110, 108, 131, 143, 148, 157, 166, 176, 190, 209, 228]"
1713644218112946969,"[239, 261, 289, 319, 355, 385, 402, 406, 397, 395, 383, 329, 256, 188, 122, 58, 18, 2, -16, -25, -21, -11, -2, 0, -7, -11, -2, 14, 16, -4, -28, -28, -23, -21, -9, 0, -7, -7, 2, 9, 16, 21, 18, 18, 28, 35, 30, 21, 21, 28, 35, 44, 51, 56, 54, 54, 63, 75, 82, 82, 77, 82, 94, 101, 105, 105, 101, 105, 115, 119, 124, 124, 117]"
1713644218674076348,"[117, 129, 134, 136, 141, 131, 119, 134, 159, 174, 157, 119, 96, 101, 110, 110, 108, 103, 108, 119, 127, 127, 105, 87, 286, 801, 1277, 1100, 206, -312, 42, 214, -11, 11, 112, 56, 47, 94, 82, 72, 94, 98, 105, 129, 141, 150, 157, 164, 185, 211, 235, 261, 282, 310, 345, 378, 399, 409, 402, 383, 345, 284, 211, 145, 84, 39, 18, 11, 4, -2, -11, -11, 2]"
1713644219235236249,"[14, 21, 23, 25, 30, 39, 51, 49, 30, 25, 35, 44, 51, 47, 32, 7, -7, 4, 9, -2, -11, -11, -16, -14, -2, 0, 0, 7, 2, -7, 0, 7, 9, 14, 21, 28, 35, 37, 39, 47, 51, 56, 65, 68, 68, 75, 79, 82, 89, 87, 89, 96, 98, 101, 105, 105, 110, 115, 117, 119, 117, 108, 108, 119, 122, 122, 134, 150, 164, 164, 143, 127, 117]"
1713644219796365628,"[117, 124, 124, 122, 122, 108, 96, 84, 58, 87, 364, 889, 1241, 870, -21, -284, 117, 141, -61, 18, 72, 4, 25, 70, 63, 70, 94, 98, 101, 117, 129, 141, 155, 164, 178, 199, 223, 256, 284, 310, 338, 362, 383, 399, 395, 373, 324, 258, 195, 136, 82, 32, -2, -11, -9, -4, -2, -2, 0, 9, 21, 32, 35, 37, 39, 49, 61, 65, 70, 68, 68, 75, 65]"
1713644220357505181,"[44, 39, 44, 44, 49, 61, 68, 61, 39, 14, 7, 9, 7, 11, 4, -9, -2, 0, -7, -4, -4, -2, 9, 16, 23, 23, 21, 25, 37, 47, 51, 51, 47, 54, 65, 72, 77, 79, 72, 77, 91, 96, 94, 77, 65, 79, 89, 94, 101, 101, 98, 105, 119, 136, 152, 155, 136, 119, 115, 115, 119, 115, 110, 117, 119, 101, 84, 79, 84, 221, 646, 1147, 1140]"
1713644220918654904,"[369, -293, -72, 197, 9, -35, 79, 51, 28, 79, 91, 70, 65, 77, 91, 105, 119, 129, 134, 148, 166, 190, 211, 235, 258, 286, 322, 352, 376, 388, 388, 378, 350, 291, 206, 127, 75, 32, 4, -4, -11, -16, -14, -11, -4, 11, 16, 18, 25, 30, 39, 51, 56, 56, 61, 68, 65, 56, 35, 32, 47, 49, 49, 58, 58, 51, 39, 23, 23, 37, 44, 35, 25]"
1713644221479804631,"[23, 16, 11, 18, 18, 14, 16, 30, 23, 0, 4, 21, 18, 23, 30, 30, 37, 49, 51, 54, 61, 63, 68, 75, 77, 63, 51, 61, 75, 72, 72, 87, 91, 91, 103, 108, 110, 124, 138, 145, 143, 124, 108, 105, 108, 110, 119, 124, 122, 119, 105, 91, 96, 221, 625, 1126, 1145, 395, -310, -112, 209, 30, -42, 89, 79, 39, 79, 91, 84, 105, 127, 127, 124]"
1713644222040944180,"[136, 148, 166, 185, 195, 199, 199, 218, 258, 291, 319, 343, 359, 376, 385, 371, 322, 244, 174, 115, 63, 18, -11, -35, -44, -39, -30, -23, -16, -16, -14, 0, 11, 21, 25, 25, 32, 44, 54, 63, 65, 58, 42, 18, 9, 23, 23, 2, -14, -14, -14, -18, -21, -23, -18, -7, 2, 9, 7, 2, 9, 21, 28, 32, 32, 30, 35, 51, 58, 58, 58, 54, 63]"
1713644222602104081,"[77, 79, 82, 79, 77, 84, 89, 82, 68, 54, 49, 56, 72, 91, 110, 112, 98, 84, 79, 77, 84, 82, 79, 89, 96, 103, 105, 98, 91, 176, 531, 1067, 1262, 656, -190, -190, 178, 58, -72, 37, 37, -4, 44, 70, 54, 63, 82, 91, 105, 122, 127, 136, 150, 166, 190, 206, 223, 249, 279, 315, 348, 369, 381, 385, 381, 352, 298, 228, 155, 94, 42, -4, -28]"
1713644223163233460,"[-35, -37, -35, -32, -23, -14, -23, -32, -18, -7, -2, 9, 16, 21, 28, 35, 39, 49, 51, 51, 58, 61, 63, 68, 65, 65, 70, 68, 54, 21, 4, 9, 14, 7, 2, 0, -4, -9, -4, 0, 2, 7, 9, 16, 21, 21, 28, 32, 35, 42, 47, 47, 51, 54, 58, 65, 70, 70, 72, 77, 79, 82, 75, 61, 63, 72, 72, 79, 84, 87, 87, 89, 98]"
1713644223724362839,"[105, 105, 108, 122, 141, 145, 138, 119, 98, 82, 72, 77, 89, 89, 87, 89, 91, 94, 101, 239, 660, 1124, 1072, 303, -315, -72, 176, -21, -54, 68, 47, 18, 58, 68, 61, 84, 103, 103, 108, 115, 127, 145, 162, 176, 185, 197, 228, 261, 291, 317, 336, 355, 373, 373, 352, 319, 258, 183, 124, 77, 30, -2, -23, -32, -25, -18, -14, -9, -11, -7, 9, 18, 28]"
1713644224285522736,"[30, 25, 32, 49, 56, 58, 58, 54, 56, 72, 75, 70, 63, 49, 23, 2, 4, 14, -4, -21, -16, -14, -18, -21, -25, -28, -18, -4, 0, 2, 4, 0, 4, 18, 30, 32, 30, 35, 44, 51, 58, 65, 61, 54, 51, 49, 58, 68, 63, 58, 72, 82, 82, 87, 91, 91, 96, 103, 108, 105, 105, 122, 145, 155, 150, 127, 103, 101, 115, 119, 117, 115, 115]"
1713644224846652115,"[117, 124, 127, 124, 258, 689, 1159, 1086, 284, -345, -108, 157, -28, -63, 61, 35, 2, 51, 63, 56, 82, 94, 91, 103, 117, 124, 141, 155, 171, 197, 228, 263, 272, 263, 319, 378, 345, 319, 350, 352, 319, 277, 192, 103, 65, 39, -7, -37, -39, -35, -28, -14, 9, 4, -11, 23, 51, 16, 2, 44, 84, 94, 56, -2, 23, 84, 72, 49, 49, 42, 44, 54, 21]"
1713644225407781494,"[-11, 11, 25, 4, -14, 0, -4, -49, -51, -21, -25, -32, -14, -9, -14, 0, 9, 2, 2, 16, 32, 47, 35, 23, 42, 49, 37, 35, 37, 37, 42, 51, 61, 68, 70, 72, 77, 87, 94, 105, 117, 119, 124, 112, 98, 101, 101, 84, 84, 98, 103, 108, 115, 108, 96, 185, 545, 1072, 1246, 606, -228, -190, 195, 77, -63, 28, 28, -4, 44, 68, 51, 58, 75]"
1713644225968941395,"[87, 101, 115, 119, 110, 108, 136, 162, 181, 202, 223, 256, 291, 324, 355, 369, 364, 350, 315, 258, 195, 124, 56, 9, -16, -30, -32, -37, -47, -35, -18, -11, -7, -2, -4, 7, 25, 35, 37, 42, 42, 44, 58, 68, 70, 70, 65, 68, 65, 49, 35, 32, 28, 23, 18, 18, 7, -25, -37, -21, -9, -7, -4, -4, -2, 4, 16, 21, 23, 21, 25, 35, 39]"
1713644226530070774,"[47, 51, 49, 47, 56, 65, 65, 54, 32, 21, 30, 42, 49, 56, 51, 49, 70, 91, 105, 112, 101, 82, 72, 77, 84, 82, 79, 84, 89, 98, 103, 96, 94, 216, 623, 1131, 1175, 439, -272, -91, 209, 18, -56, 68, 56, 16, 63, 84, 70, 65, 61, 68, 87, 98, 103, 115, 129, 143, 164, 188, 211, 237, 270, 301, 326, 350, 359, 364, 359, 322, 263, 199, 131]"
1713644227091230671,"[61, 9, -18, -30, -42, -47, -39, -32, -30, -21, -28, -42, -30, -11, -11, -4, 9, 11, 21, 30, 32, 35, 37, 39, 51, 56, 51, 54, 58, 61, 63, 63, 47, 42, 49, 51, 56, 61, 47, 39, 42, 35, 11, -4, -2, -7, -18, -14, 0, 0, -2, 0, 7, 11, 18, 25, 25, 25, 30, 39, 47, 49, 51, 51, 44, 44, 56, 58, 56, 56, 68, 77, 82]"
1713644227652375311,"[82, 89, 105, 122, 124, 115, 94, 68, 49, 54, 65, 70, 75, 75, 72, 79, 82, 110, 336, 813, 1182, 898, 39, -322, 51, 143, -63, -9, 79, 32, 32, 68, 58, 65, 77, 61, 58, 72, 79, 96, 117, 136, 150, 164, 188, 218, 254, 289, 312, 329, 348, 364, 366, 352, 310, 232, 152, 98, 51, 14, -18, -44, -47, -32, -23, -21, -23, -25, -9, 4, 14, 23, 25]"
1713644228213519947,"[23, 32, 51, 54, 51, 49, 49, 61, 68, 65, 61, 44, 37, 42, 37, 30, 32, 32, 35, 47, 54, 58, 54, 42, 35, 44, 51, 35, 2, -11, -4, -7, -9, 2, 4, 0, 7, 14, 18, 25, 28, 30, 37, 47, 54, 54, 61, 75, 84, 84, 65, 51, 51, 56, 56, 58, 70, 75, 75, 79, 84, 84, 174, 517, 1006, 1150, 545, -235, -192, 195, 91, -49, 65]"
1713644228774674761,"[96, 51, 75, 94, 84, 79, 84, 91, 87, 87, 103, 117, 131, 150, 166, 185, 211, 239, 275, 301, 308, 315, 338, 348, 333, 305, 246, 176, 110, 49, 4, -21, -44, -49, -49, -49, -42, -42, -44, -32, -21, -16, -9, -2, 4, 16, 28, 28, 32, 39, 39, 49, 54, 51, 54, 56, 58, 65, 65, 65, 68, 68, 72, 79, 79, 77, 77, 79, 79, 75, 63, 63, 70]"
1713644229335839745,"[68, 63, 63, 63, 58, 42, 21, 18, 23, 16, 7, 7, -2, -21, -11, 4, -2, -4, 4, 14, 25, 30, 28, 35, 54, 79, 89, 72, 37, 11, 23, 39, 42, 44, 44, 44, 56, 68, 70, 77, 225, 651, 1112, 1037, 256, -317, -47, 188, -2, -21, 94, 61, 28, 70, 87, 82, 101, 110, 103, 110, 117, 117, 131, 148, 152, 169, 202, 230, 256, 284, 305, 329, 357]"
1713644229896969124,"[373, 376, 357, 310, 237, 150, 82, 37, -21, -75, -82, -70, -70, -68, -63, -61, -49, -32, -25, -30, -39, -35, -18, -4, 4, 14, 14, 11, 23, 35, 42, 47, 44, 42, 49, 61, 65, 65, 63, 63, 70, 82, 84, 84, 82, 82, 89, 94, 98, 98, 91, 77, 61, 56, 65, 63, 56, 51, 44, 44, 37, 28, 28, 32, 37, 42, 44, 44, 44, 37, 16, 9, 23]"
1713644230458098503,"[25, 25, 32, 39, 49, 54, 54, 56, 58, 65, 63, 37, 30, 56, 77, 77, 68, 54, 42, 49, 56, 61, 68, 72, 72, 79, 82, 82, 112, 333, 809, 1166, 865, 30, -284, 91, 171, -30, 23, 105, 54, 54, 84, 68, 65, 94, 101, 98, 117, 131, 136, 150, 166, 178, 197, 223, 244, 270, 301, 324, 348, 364, 350, 326, 317, 284, 225, 157, 94, 42, 4, -21, -30]"
1713644231019243143,"[-37, -49, -63, -58, -42, -32, -23, -18, -21, -28, -25, -4, 4, 2, 11, 18, 23, 32, 37, 39, 42, 44, 51, 58, 61, 58, 58, 63, 70, 77, 79, 75, 72, 68, 58, 63, 65, 51, 44, 54, 61, 58, 49, 37, 28, 23, 25, 32, 32, 28, 28, 35, 39, 47, 44, 18, 0, 11, 30, 30, 32, 35, 32, 44, 54, 49, 37, 32, 39, 49, 58, 70, 70]"
1713644231580387779,"[65, 77, 105, 122, 119, 94, 54, 37, 56, 68, 68, 70, 68, 68, 84, 89, 84, 150, 458, 947, 1147, 618, -162, -192, 176, 89, -56, 58, 87, 30, 54, 87, 79, 87, 108, 110, 105, 122, 141, 148, 162, 169, 176, 199, 228, 256, 282, 293, 293, 315, 348, 357, 350, 326, 272, 209, 141, 68, 16, -21, -49, -54, -47, -42, -39, -42, -37, -25, -11, -2, 2, 7, 11]"
1713644232141517158,"[23, 35, 39, 39, 35, 37, 51, 58, 42, 9, 0, 11, 14, 11, 9, -2, -23, -32, -23, -14, -11, -11, -9, -9, 0, 11, 16, 14, 14, 18, 25, 35, 39, 39, 42, 47, 49, 61, 65, 58, 44, 30, 32, 42, 47, 51, 54, 54, 44, 44, 54, 56, 65, 89, 108, 112, 96, 75, 70, 75, 82, 87, 84, 84, 91, 98, 101, 98, 136, 390, 884, 1199, 825]"
1713644232702677055,"[-25, -296, 110, 181, -28, 35, 110, 39, 42, 89, 79, 72, 82, 77, 87, 108, 117, 124, 138, 152, 171, 195, 211, 237, 268, 298, 329, 352, 362, 371, 364, 341, 298, 218, 117, 49, 9, -25, -58, -79, -89, -84, -77, -70, -56, -47, -44, -37, -30, -16, 0, 4, 7, 9, 14, 25, 37, 39, 35, 23, 23, 30, 35, 32, 21, 9, 7, 4, 0, 2, -2, -16, -14]"
1713644233263811525,"[-2, 4, 2, -9, -25, -18, 0, 4, 7, 7, 9, 18, 28, 35, 35, 32, 35, 47, 54, 58, 58, 56, 58, 70, 79, 79, 68, 54, 65, 84, 63, 37, 30, 23, 25, 39, 47, 51, 54, 54, 58, 65, 72, 202, 609, 1093, 1105, 373, -301, -96, 195, 4, -54, 77, 58, 23, 63, 68, 58, 84, 101, 96, 91, 96, 110, 129, 143, 157, 169, 183, 211, 244, 272]"
1713644233824966335,"[303, 322, 333, 352, 359, 350, 315, 249, 171, 108, 61, 16, -25, -63, -77, -65, -58, -54, -54, -70, -84, -77, -68, -56, -47, -47, -39, -25, -16, -9, -4, -2, 0, 9, 18, 21, 21, 21, 21, 30, 37, 42, 39, 39, 42, 49, 54, 51, 39, 35, 39, 44, 39, 16, 2, 2, -2, -4, 4, 4, 2, 4, 9, 14, 21, 21, 21, 25, 28, 30, 39, 39, 39]"
1713644234386110975,"[47, 49, 51, 56, 56, 58, 63, 68, 68, 68, 65, 68, 61, 37, 23, 18, 14, 21, 32, 30, 35, 42, 44, 51, 54, 54, 164, 550, 1046, 1119, 432, -286, -138, 183, 21, -58, 65, 54, 11, 56, 70, 63, 79, 84, 75, 72, 89, 105, 115, 124, 141, 155, 176, 202, 228, 251, 279, 305, 326, 343, 348, 336, 305, 251, 188, 127, 68, 18, -16, -35, -39, -37, -35]"
1713644234947255611,"[-37, -37, -32, -35, -42, -56, -75, -79, -75, -58, -42, -37, -37, -32, -25, -11, -4, 0, 0, 0, 7, 16, 21, 25, 21, 23, 30, 39, 47, 49, 47, 47, 54, 63, 61, 47, 28, 18, 30, 37, 39, 35, 21, 16, 16, 9, 14, 21, 11, 11, 21, 28, 32, 37, 32, 28, 39, 49, 54, 54, 49, 54, 65, 75, 96, 108, 98, 77, 54, 47, 44, 21, 2]"
1713644235508384990,"[16, 32, 35, 42, 44, 30, 54, 277, 754, 1161, 928, 54, -378, 2, 150, -65, -42, 54, 11, 11, 63, 63, 51, 65, 84, 94, 94, 96, 105, 117, 129, 148, 174, 197, 216, 239, 275, 308, 331, 345, 357, 359, 338, 298, 242, 174, 103, 47, 14, -7, -18, -23, -30, -32, -21, -9, -2, -2, -11, -18, -7, 11, 18, 16, 2, -9, 4, 21, 18, 18, 25, 28, 30]"
1713644236069544887,"[39, 44, 42, 44, 47, 49, 56, 49, 25, 28, 39, 42, 47, 51, 44, 39, 35, 30, 18, 18, 14, 7, 4, 0, 0, 7, 7, 9, 16, 23, 28, 30, 49, 72, 77, 65, 47, 30, 35, 42, 42, 47, 51, 51, 58, 65, 63, 68, 195, 590, 1074, 1112, 383, -331, -150, 174, -16, -110, 18, 16, -28, 18, 42, 32, 47, 63, 68, 79, 98, 110, 117, 131, 148]"
1713644236630704788,"[164, 190, 216, 237, 258, 270, 291, 319, 322, 308, 289, 254, 195, 129, 68, 9, -35, -56, -65, -63, -63, -63, -58, -51, -39, -28, -21, -18, -14, -4, 7, 18, 23, 25, 25, 30, 39, 47, 49, 47, 39, 32, 37, 47, 47, 42, 39, 44, 42, 18, 14, 18, 16, 23, 35, 39, 42, 37, 39, 47, 54, 58, 49, 32, 32, 44, 49, 39, 30, 18, 9, 7, 4]"
1713644237191834167,"[-4, -7, -7, -2, 9, 18, 21, 14, 2, 18, 44, 47, 28, 11, 2, 9, 23, 28, 32, 35, 30, 37, 49, 42, 117, 465, 1001, 1222, 642, -209, -225, 150, 30, -112, 18, 44, -11, 18, 42, 32, 44, 44, 28, 35, 51, 65, 84, 103, 117, 129, 145, 176, 206, 239, 268, 289, 308, 326, 338, 333, 303, 242, 169, 101, 37, -7, -30, -54, -63, -56, -47, -42, -39]"
1713644237752978807,"[-35, -25, -16, -4, 2, 4, 9, 14, 21, 30, 28, 11, 4, 14, 23, 25, 30, 28, 28, 32, 37, 44, 37, 30, 32, 37, 42, 49, 51, 47, 49, 54, 56, 44, 21, 14, 25, 30, 30, 42, 44, 42, 49, 54, 54, 51, 39, 39, 47, 47, 42, 32, 25, 18, 2, -9, -4, 0, 0, 4, 14, 16, 18, 25, 35, 54, 72, 68, 54, 39, 30, 35, 42]"
1713644238314123443,"[42, 47, 51, 54, 61, 63, 49, 89, 362, 874, 1215, 818, -84, -319, 75, 77, -108, -16, 42, -14, 2, 42, 37, 42, 63, 65, 63, 56, 58, 77, 91, 103, 119, 143, 174, 199, 223, 254, 282, 310, 331, 338, 331, 308, 256, 185, 112, 56, 7, -30, -44, -44, -47, -49, -47, -42, -35, -18, -7, -7, -4, 2, 14, 23, 30, 35, 32, 32, 44, 51, 54, 56, 54]"
1713644238875252822,"[54, 56, 58, 63, 54, 23, 2, 16, 30, 28, 32, 32, 30, 42, 47, 47, 51, 54, 54, 49, 25, 16, 28, 28, 25, 37, 35, 25, 28, 28, 23, 28, 25, 21, 14, 2, 0, 14, 30, 44, 35, 7, -2, 9, 18, 18, 16, 16, 25, 37, 44, 47, 47, 166, 583, 1095, 1126, 378, -341, -152, 183, 11, -63, 61, 47, 4, 54, 77, 58, 51, 54, 63, 82]"
1713644239436412723,"[98, 108, 119, 134, 143, 162, 192, 221, 237, 246, 275, 312, 319, 305, 305, 293, 239, 176, 115, 51, -7, -47, -72, -77, -72, -70, -68, -70, -79, -75, -56, -47, -44, -32, -21, -11, 0, 7, 7, 16, 23, 30, 39, 42, 44, 44, 47, 51, 58, 58, 56, 58, 63, 65, 70, 70, 65, 70, 72, 65, 56, 49, 56, 61, 58, 63, 68, 56, 44, 49, 56, 56, 51]"
1713644239997547189,"[49, 61, 68, 44, 7, -37, -77, -70, -54, -56, -49, -39, -37, -28, -18, -21, -11, 171, 649, 1138, 1034, 164, -442, -122, 112, -105, -108, 9, -25, -44, 4, 18, 14, 32, 47, 51, 68, 87, 98, 110, 124, 143, 162, 190, 221, 246, 277, 312, 338, 355, 357, 341, 301, 239, 183, 129, 65, 0, -49, -49, -30, -39, -47, -35, -28, -30, -21, -9, -2, -9, -32, -25, 14]"
1713644240558701999,"[21, 4, 2, 16, 25, 14, 30, 68, 63, 39, 25, 23, 58, 70, 21, -2, 18, 25, 35, 58, 51, 35, 51, 68, 58, 61, 70, 56, 58, 63, 68, 87, 72, 61, 82, 82, 70, 70, 94, 117, 94, 77, 82, 56, 51, 84, 82, 65, 70, 51, 16, 28, 54, 39, 37, 44, 32, 30, 39, 47, 49, 47, 32, 11, 9, 30, 56, 63, 51, 39, 32, 30, 32]"
1713644241119846639,"[32, 28, 32, 49, 49, 42, 39, 30, 75, 381, 924, 1270, 851, -82, -319, 87, 75, -110, -16, 32, -18, 7, 47, 39, 35, 49, 61, 79, 101, 108, 112, 127, 136, 136, 141, 178, 204, 221, 263, 301, 317, 331, 341, 341, 312, 279, 228, 136, 68, 39, 9, -18, -23, -30, -39, -30, -39, -56, -37, -21, -35, -23, 2, 2, 4, 23, 18, 9, 18, 32, 32, 37, 44]"
1713644241680991275,"[42, 51, 58, 54, 54, 56, 61, 77, 72, 54, 44, 54, 61, 54, 54, 58, 63, 72, 72, 72, 72, 70, 79, 79, 56, 54, 72, 54, 37, 49, 51, 39, 39, 32, 28, 32, 25, 28, 39, 32, 23, 30, 35, 42, 47, 42, 44, 56, 49, 16, 2, 28, 63, 77, 70, 58, 35, 16, 28, 42, 32, 35, 47, 49, 54, 54, 37, 96, 416, 957, 1270, 811, -96]"
1713644242242120654,"[-272, 141, 101, -82, 25, 68, -7, 0, 39, 49, 47, 58, 79, 87, 87, 91, 96, 105, 119, 138, 157, 190, 221, 237, 279, 324, 338, 364, 385, 359, 319, 275, 216, 145, 82, 39, 7, -18, -25, -16, -9, -25, -44, -37, -23, -9, -4, -16, -16, 2, 14, 14, 21, 35, 32, 32, 58, 70, 61, 56, 61, 63, 63, 68, 72, 65, 61, 68, 72, 68, 70, 77, 63]"
1713644242803280551,"[54, 72, 65, 39, 21, 11, 2, -21, -25, -9, -18, -18, -2, 0, 0, 2, 4, 14, 14, 16, 28, 30, 28, 37, 49, 54, 65, 63, 54, 70, 94, 112, 108, 68, 32, 18, 21, 32, 25, 7, 16, 35, 37, 44, 63, 197, 625, 1143, 1131, 326, -348, -103, 178, -11, -51, 79, 49, 4, 54, 70, 61, 82, 94, 91, 105, 119, 129, 141, 155, 169, 169, 181, 211]"
1713644243364409934,"[244, 272, 296, 324, 350, 364, 357, 317, 258, 195, 127, 65, 16, -25, -56, -65, -61, -58, -56, -49, -44, -37, -30, -18, -11, -9, -4, -14, -35, -30, -28, -30, -18, -4, 2, 2, -7, -9, -2, 0, -4, -4, -4, -9, -18, -25, -21, -14, -14, -11, -4, -2, 2, 9, 7, 9, 18, 28, 25, 23, 32, 28, 16, 18, 25, 28, 35, 49, 54, 49, 56, 61, 58]"
1713644243925549487,"[68, 77, 72, 72, 77, 82, 91, 94, 91, 84, 75, 84, 112, 117, 101, 84, 70, 65, 72, 70, 37, 7, 16, 44, 51, 35, 47, 251, 754, 1225, 1044, 157, -333, 4, 141, -84, -42, 91, 44, 7, 56, 75, 56, 63, 84, 84, 89, 127, 145, 136, 148, 166, 176, 185, 202, 228, 265, 298, 326, 343, 364, 376, 336, 275, 235, 176, 108, 56, -7, -42, -18, -7, -23]"
1713644244486699210,"[-21, -9, -14, -11, 9, 21, -7, -23, 11, 28, 14, 9, -9, -42, -39, -7, -2, -16, 11, 35, 11, 11, 35, 37, 30, 21, 21, 32, 42, 47, 32, 23, 32, 32, 11, -2, -2, 0, 14, 32, 25, 18, 21, 4, -4, 4, 7, 14, 18, 16, 32, 51, 51, 44, 39, 44, 49, 61, 75, 70, 70, 77, 75, 77, 84, 84, 77, 72, 91, 108, 101, 98, 103]"
1713644245047828589,"[98, 108, 129, 119, 84, 54, 44, 54, 56, 47, 37, 21, 23, 39, 49, 42, 32, 190, 646, 1143, 1133, 348, -322, -84, 174, -18, -39, 75, 39, 11, 51, 65, 61, 79, 82, 58, 75, 105, 98, 105, 141, 159, 171, 195, 221, 235, 263, 305, 326, 333, 355, 378, 359, 310, 258, 202, 131, 65, 25, 2, -18, -23, -16, -21, -23, -11, -18, -32, -25, -16, -30, -49, -35]"
1713644245608983403,"[-16, -14, -7, 0, 2, 9, 11, 7, -2, 2, 16, 11, 11, 18, 9, 7, 18, 14, 9, 4, 2, -4, -9, -2, 2, -7, -16, -21, -2, 11, 0, -4, 4, 14, 25, 28, 16, 4, 25, 58, 61, 49, 56, 56, 56, 65, 70, 70, 72, 72, 65, 77, 98, 89, 72, 84, 112, 131, 112, 87, 77, 65, 32, 16, 42, 49, 35, 44, 54, 61, 63, 63, 204]"
1713644246170117869,"[642, 1140, 1119, 326, -341, -110, 157, -37, -79, 56, 37, -14, 35, 68, 51, 56, 65, 75, 94, 91, 105, 136, 138, 131, 164, 206, 223, 254, 293, 301, 333, 385, 388, 376, 362, 312, 244, 181, 115, 56, 18, -9, -42, -44, -37, -68, -84, -21, 28, -23, -42, -9, -49, -77, -2, 28, -21, -30, 9, 28, -2, -9, 18, 25, 16, 0, -11, 11, 39, 7, -35, -11, -18]"
1713644246731247248,"[-82, -44, 65, 30, -42, 16, 44, 0, -37, -49, -2, 63, 58, 14, -16, -18, -9, 7, 25, 11, -4, 37, 63, 35, 49, 75, 61, 96, 110, 54, 58, 63, 51, 84, 79, 72, 84, 72, 56, 42, 61, 242, 691, 1175, 1077, 244, -319, -75, 89, -82, -70, 18, -7, 11, 63, 32, 2, 23, 63, 89, 103, 127, 127, 108, 117, 141, 152, 178, 258, 289, 270, 291, 317]"
1713644247292386801,"[336, 371, 369, 331, 272, 204, 166, 108, 16, -11, -14, -58, -75, -54, -61, -61, -49, -51, -35, -4, 2, -11, -14, 0, 4, 2, 25, 49, 37, 39, 47, 9, 2, 58, 58, 23, 49, 68, 32, 21, 32, 21, 14, 28, 28, 14, 18, 37, 37, 37, 47, 32, 7, 0, 0, 16, 28, 7, -7, 18, 44, 30, 25, 25, -2, -4, 51, 72, 35, 32, 51, 49, 44]"
1713644247853521266,"[58, 84, 98, 101, 94, 77, 61, 47, 35, 32, 54, 61, 54, 70, 75, 42, 42, 209, 665, 1227, 1258, 397, -331, -89, 155, -68, -89, 51, 28, -16, 28, 63, 39, 0, 23, 75, 65, 56, 91, 110, 112, 138, 162, 174, 197, 232, 254, 286, 341, 362, 352, 355, 345, 301, 230, 150, 84, 39, 7, -18, -30, -39, -51, -35, -16, -30, -23, -4, -4, 11, 30, 37, 25]"
1713644248414665903,"[16, 32, 51, 68, 63, 37, 42, 68, 70, 65, 65, 54, 25, 11, 23, 23, 23, 35, 28, 30, 44, 54, 58, 47, 35, 25, 21, 25, 39, 42, 35, 39, 49, 58, 68, 58, 37, 37, 51, 54, 47, 37, 42, 44, 28, 14, 7, 2, 9, 32, 51, 54, 42, 21, 11, 14, 21, 35, 42, 30, 30, 44, 47, 37, 58, 289, 816, 1253, 983, 63, -348, 37, 143]"
1713644248975795282,"[-79, -25, 68, 7, -9, 16, 21, 39, 39, 18, 28, 54, 63, 77, 96, 108, 124, 138, 141, 159, 197, 232, 256, 282, 317, 336, 324, 303, 258, 183, 112, 63, 14, -25, -44, -54, -68, -75, -75, -68, -54, -42, -23, -18, -23, -7, 9, 7, 14, 25, 28, 32, 39, 44, 51, 58, 51, 54, 63, 68, 65, 65, 65, 70, 75, 72, 72, 72, 70, 77, 84, 75, 68]"
1713644249536924661,"[72, 65, 56, 72, 89, 63, 28, 56, 94, 63, 51, 91, 75, -2, 7, 72, 77, 63, 51, 23, 16, 35, 42, 32, 30, 84, 345, 839, 1143, 672, -216, -366, 39, 28, -138, -56, 0, -44, -35, 0, 7, 28, 42, 28, 30, 70, 91, 96, 110, 115, 124, 164, 204, 221, 249, 298, 324, 338, 362, 352, 317, 293, 235, 150, 68, 14, -2, -25, -51, -56, -58, -56, -49]"
1713644250098084562,"[-49, -39, -47, -91, -108, -68, -54, -56, -9, 7, -21, -7, 18, 16, 11, 18, 21, 9, 2, 18, 25, 11, 25, 39, 30, 39, 58, 39, 39, 70, 49, 25, 72, 82, 56, 84, 91, 51, 58, 105, 115, 94, 82, 77, 79, 79, 96, 138, 129, 94, 96, 96, 84, 82, 101, 119, 98, 79, 96, 103, 101, 89, 75, 82, 96, 98, 101, 91, 47, 2, 4, 16, 11]"
1713644250659213941,"[9, 9, 11, 14, 21, 39, 32, 16, 166, 620, 1126, 1086, 263, -383, -129, 110, -89, -115, 2, -32, -56, 7, 21, 7, 28, 39, 42, 58, 77, 87, 94, 108, 124, 143, 169, 192, 218, 251, 277, 308, 329, 333, 336, 322, 286, 228, 157, 98, 39, -2, -23, -39, -37, -42, -44, -32, -30, -21, -9, -9, -11, -30, -39, -18, -11, -14, 2, 11, 9, 14, 23, 23, 28]"
1713644251220343320,"[30, 16, 16, 28, 28, 32, 39, 39, 42, 32, 18, 28, 39, 37, 37, 39, 44, 49, 54, 54, 63, 70, 63, 68, 82, 77, 75, 79, 82, 84, 84, 89, 91, 79, 77, 87, 79, 63, 65, 70, 68, 65, 61, 51, 44, 47, 65, 84, 72, 49, 32, 25, 32, 32, 14, -7, -7, 7, 14, 14, 14, 124, 536, 1072, 1140, 392, -341, -171, 127, -51, -105, 21, 4]"
1713644251781493047,"[-30, 14, 35, 25, 44, 68, 51, 39, 58, 77, 94, 108, 117, 136, 159, 190, 221, 249, 275, 298, 329, 350, 352, 338, 289, 223, 164, 96, 42, 7, -32, -47, -35, -32, -39, -37, -30, -23, -11, 2, 11, 9, 4, 7, 7, 9, 32, 32, 2, 4, 28, 35, 21, 16, 49, 58, 23, 21, 44, 37, 16, 23, 44, 54, 68, 72, 49, 51, 72, 79, 75, 47, 42]"
1713644252342632596,"[94, 108, 89, 94, 87, 68, 77, 115, 119, 89, 70, 49, 42, 56, 56, 28, 7, 28, 39, 14, 2, -4, -11, 16, 37, 25, 39, 58, 51, 79, 87, 23, 7, 56, 61, 54, 65, 63, 49, 44, 51, 37, 21, 246, 787, 1211, 952, 72, -357, 2, 119, -89, -28, 65, 2, 0, 51, 51, 42, 68, 91, 84, 87, 119, 141, 136, 148, 181, 192, 202, 235, 265, 303]"
1713644252903761975,"[345, 357, 364, 378, 369, 329, 258, 178, 112, 44, -9, -44, -63, -68, -68, -58, -51, -58, -54, -39, -28, -18, -18, -11, 7, 14, 9, 23, 32, 30, 35, 42, 32, 7, 4, 23, 18, 4, 7, 9, 4, 9, 23, 30, 25, 16, 18, 30, 25, 18, 16, 16, 14, -2, -11, 9, 21, 9, 9, 21, 21, 28, 37, 28, 25, 32, 44, 63, 56, 58, 58, 54, 82]"
1713644253464921876,"[87, 58, 49, 39, 28, 18, 25, 42, 42, 35, 30, 37, 47, 94, 411, 985, 1260, 710, -174, -251, 162, 110, -63, 28, 68, 14, 7, 16, 4, -18, -35, -11, 61, 89, 63, 110, 136, 91, 122, 204, 221, 216, 265, 312, 322, 333, 352, 364, 355, 312, 244, 166, 98, 51, 16, -9, -35, -68, -72, -47, -39, -42, -14, 11, -21, -47, -28, -7, 25, 47, 28, 28, 54]"
1713644254026061429,"[51, 37, 35, 32, 37, 54, 63, 63, 54, 56, 65, 63, 58, 42, 28, 39, 44, 25, 47, 68, 11, -16, 25, 30, 7, 7, 23, 30, 25, 28, 44, 35, 4, 0, 9, 7, 14, 16, -4, 2, 28, 11, 11, 51, 39, 23, 47, 42, 7, 11, 54, 35, 0, 37, 54, 51, 82, 65, 35, 63, 89, 63, 58, 98, 110, 124, 145, 84, 25, 98, 134, 70, 75]"
1713644254587211152,"[89, 89, 129, 105, 70, 82, 127, 432, 983, 1244, 757, -72, -239, 75, 37, -108, -35, -2, -21, 2, 16, 14, 16, 44, 63, 70, 96, 91, 75, 112, 148, 145, 150, 174, 225, 275, 291, 303, 338, 355, 341, 357, 352, 254, 152, 91, 65, 61, 7, -51, -47, -30, -25, -28, -32, -39, -37, -9, 23, 23, 9, 14, 25, 25, 25, 28, 30, 37, 54, 54, 37, 58, 77]"
1713644255148340531,"[56, 49, 61, 42, 28, 25, 2, -7, -11, -21, -9, 2, -14, -25, -18, -18, -25, -23, -21, -35, -30, -2, 7, 7, 9, 7, 11, 16, 18, 32, 42, 39, 51, 61, 44, 37, 42, 37, 44, 47, 39, 72, 98, 75, 79, 117, 127, 117, 105, 87, 79, 87, 89, 82, 79, 89, 84, 84, 110, 105, 105, 341, 863, 1253, 940, 58, -312, 51, 148, -77, -47, 54, 0]"
1713644255709495345,"[-4, 44, 21, 9, 47, 56, 47, 65, 94, 110, 110, 105, 122, 159, 192, 214, 265, 312, 317, 338, 371, 378, 362, 305, 228, 190, 159, 72, -14, -42, -51, -61, -56, -47, -49, -54, -47, -30, -23, -18, -14, -16, -4, 9, 18, 30, 30, 25, 35, 49, 56, 54, 47, 44, 51, 61, 65, 56, 42, 42, 54, 51, 30, 0, -14, -9, -9, -14, -4, -9, -39, -37, -18]"
1713644256270629807,"[-9, -7, -9, -11, -18, -4, 16, 11, -4, -16, -11, 7, 9, 14, 39, 51, 58, 51, 39, 28, 4, 7, 23, 18, 35, 54, 49, 39, 42, 49, 39, 117, 515, 1098, 1274, 599, -244, -197, 162, 30, -87, 32, 49, -4, 28, 61, 39, 54, 68, 51, 58, 77, 84, 101, 115, 112, 98, 127, 183, 206, 232, 272, 298, 322, 343, 348, 326, 279, 216, 143, 75, 21, -16]"
1713644256831764277,"[-42, -54, -58, -61, -58, -65, -84, -79, -70, -70, -63, -51, -42, -30, -18, -11, -2, 2, 9, 23, 28, 28, 32, 35, 39, 42, 42, 42, 44, 44, 47, 54, 49, 35, 32, 32, 37, 42, 30, 11, -7, -21, -18, 2, 7, -2, -2, -7, -28, -28, -18, -18, -2, 7, 2, 11, 23, 21, 18, 28, 42, 49, 47, 47, 44, 47, 61, 72, 68, 68, 79, 72, 56]"
1713644257392919087,"[65, 89, 103, 105, 98, 91, 87, 72, 51, 47, 56, 61, 63, 72, 65, 58, 58, 108, 420, 961, 1253, 792, -82, -256, 134, 108, -75, 21, 75, 16, 35, 51, 23, 39, 68, 68, 77, 94, 91, 96, 112, 122, 129, 141, 162, 190, 228, 268, 286, 303, 319, 317, 322, 319, 272, 197, 129, 75, 28, -4, -18, -32, -49, -49, -39, -37, -28, -25, -28, -16, 0, 9, 11]"
1713644257954063727,"[14, 14, 18, 30, 44, 51, 44, 35, 39, 49, 54, 35, 2, 9, 16, -7, 14, 68, 51, 18, 42, 56, 28, 18, 28, 18, 9, 16, 30, 25, 16, 11, -9, -39, -51, -37, -23, -28, -32, -16, -7, -14, -14, -2, 9, 14, 16, 16, 16, 23, 39, 44, 37, 35, 32, 30, 49, 79, 84, 65, 51, 44, 44, 47, 47, 61, 68, 65, 75, 77, 65, 87, 303]"
1713644258515208363,"[794, 1213, 985, 112, -333, 25, 171, -44, -25, 54, 4, 7, 42, 25, 18, 44, 58, 63, 77, 96, 105, 110, 127, 150, 162, 164, 176, 211, 256, 289, 317, 338, 345, 345, 326, 277, 204, 127, 58, 9, -16, -37, -61, -58, -47, -56, -56, -42, -44, -47, -32, -18, -4, 2, 4, 4, 14, 32, 37, 37, 47, 47, 47, 54, 61, 63, 56, 49, 47, 54, 65, 65, 61]"
1713644259076337742,"[61, 61, 70, 72, 54, 35, 18, 2, 4, 18, 25, 21, 11, 4, 2, 9, 21, 23, 4, -16, -21, -21, -23, -21, -18, -11, 0, 9, 14, 11, 9, 25, 206, 682, 1159, 1048, 195, -402, -94, 145, -70, -91, 35, 2, -18, 39, 44, 23, 47, 70, 75, 89, 96, 96, 117, 143, 155, 176, 199, 218, 249, 293, 333, 357, 373, 376, 371, 343, 268, 183, 112, 39, -11]"
1713644259637497643,"[-30, -44, -56, -65, -65, -56, -44, -32, -32, -51, -72, -77, -68, -54, -44, -42, -35, -18, -7, 0, 9, 9, 7, 18, 30, 30, 30, 21, 14, 21, 35, 39, 39, 39, 39, 49, 61, 61, 58, 58, 61, 68, 72, 75, 75, 68, 70, 75, 84, 89, 75, 56, 54, 63, 65, 56, 44, 35, 18, -2, -2, 7, 4, -2, 4, 9, 14, 18, 18, 21, 23, 25, 42]"
1713644260198627022,"[65, 75, 68, 39, 4, -14, -16, -23, -23, -7, 0, 2, 7, 9, 0, 23, 284, 841, 1270, 952, 11, -366, 18, 84, -136, -58, 28, -37, -28, 21, 14, 11, 35, 47, 54, 68, 77, 87, 103, 115, 129, 150, 169, 195, 228, 254, 284, 308, 329, 338, 322, 286, 244, 181, 108, 49, 7, -32, -58, -63, -65, -58, -54, -54, -42, -37, -32, -18, -11, -21, -44, -44, -25]"
1713644260759756401,"[-16, -11, -7, -4, -2, 2, 14, 16, 9, 2, 0, 7, 21, 21, 16, 9, -2, 7, 21, 21, 18, 18, 23, 35, 44, 42, 37, 42, 47, 49, 58, 61, 56, 54, 58, 68, 63, 47, 42, 44, 44, 32, 11, 7, 2, -11, -7, 4, 9, 7, 4, 4, 14, 21, 25, 25, 23, 21, 30, 42, 44, 49, 39, 16, 18, 49, 77, 70, 49, 42, 39, 37, 44]"
1713644261320901041,"[32, 14, 21, 37, 44, 49, 30, 2, 155, 639, 1173, 1166, 352, -345, -115, 148, -54, -84, 30, -4, -25, 28, 39, 35, 51, 58, 58, 75, 96, 103, 110, 117, 122, 131, 162, 195, 209, 230, 272, 308, 331, 345, 343, 331, 298, 249, 183, 110, 49, 2, -23, -32, -42, -42, -44, -68, -79, -63, -44, -42, -39, -32, -21, -11, -16, -21, -14, -9, -2, 9, 14, 14, 14]"
1713644261882045677,"[11, 21, 32, 37, 35, 32, 39, 47, 54, 51, 28, 18, 35, 44, 44, 47, 47, 39, 32, 37, 39, 35, 32, 16, -2, -7, -7, -9, -4, -2, -4, 0, 11, 11, 11, 21, 25, 25, 30, 30, 37, 47, 47, 51, 58, 58, 63, 72, 65, 51, 49, 32, 18, 32, 39, 25, 18, 25, 37, 42, 37, 35, 112, 470, 1030, 1262, 677, -204, -251, 148, 61, -91, 23]"
1713644262443175056,"[56, 2, 28, 65, 56, 61, 77, 65, 56, 84, 103, 105, 117, 131, 141, 150, 178, 209, 237, 270, 303, 333, 352, 352, 348, 322, 263, 197, 127, 63, 11, -23, -32, -39, -44, -44, -42, -37, -28, -18, -18, -42, -51, -30, -16, -11, -14, -23, -21, -7, 2, -2, -7, -4, -4, -2, -2, -7, -7, -18, -30, -21, -9, -4, -2, -4, -4, 2, 11, 18, 21, 18, 23]"
1713644263004304435,"[30, 35, 42, 47, 42, 35, 35, 37, 47, 47, 21, 2, 18, 37, 39, 42, 42, 39, 51, 63, 65, 68, 68, 70, 82, 91, 94, 101, 112, 129, 131, 115, 94, 61, 39, 49, 65, 58, 49, 49, 51, 51, 51, 94, 390, 950, 1307, 889, -37, -286, 115, 112, -89, 2, 70, 16, 32, 65, 51, 58, 87, 94, 98, 108, 112, 124, 145, 162, 181, 188, 192, 221, 261]"
1713644263565464336,"[293, 319, 341, 355, 366, 371, 350, 286, 199, 124, 70, 25, -11, -32, -47, -56, -47, -35, -28, -25, -25, -16, -4, 2, 11, 9, -9, -14, -7, -9, -11, -2, 4, 4, 9, 4, 0, 7, 7, 2, 0, 0, -4, -16, -16, -9, -4, 2, 2, 0, 4, 9, 16, 21, 21, 23, 28, 30, 35, 42, 42, 28, 23, 35, 42, 44, 47, 51, 56, 54, 58, 68, 68]"
1713644264126593715,"[72, 72, 72, 82, 87, 82, 87, 89, 87, 89, 84, 65, 65, 82, 82, 87, 108, 112, 82, 47, 25, 18, 23, 28, 35, 39, 44, 51, 56, 54, 44, 127, 484, 1044, 1277, 679, -183, -206, 162, 51, -87, 32, 56, 2, 35, 61, 47, 61, 84, 87, 94, 103, 98, 101, 129, 145, 150, 171, 199, 225, 258, 286, 310, 329, 348, 362, 362, 336, 282, 211, 145, 91, 44]"
1713644264687738355,"[7, -21, -37, -39, -30, -21, -23, -30, -39, -42, -49, -70, -72, -56, -51, -44, -25, -16, -14, -14, -9, 0, 7, 14, 18, 16, 14, 11, 9, 16, 18, 9, 2, 2, 4, -7, -11, -14, -14, -4, 2, 7, 2, -9, -14, -4, 4, 14, 11, 2, 11, 28, 35, 37, 42, 37, 35, 44, 54, 58, 56, 54, 63, 68, 70, 77, 72, 65, 77, 87, 84, 91, 91]"
1713644265248882991,"[79, 75, 61, 39, 51, 75, 65, 56, 49, 39, 35, 28, 16, 25, 37, 44, 51, 47, 32, 75, 359, 896, 1260, 879, -32, -310, 94, 122, -79, -7, 56, 4, 23, 61, 37, 32, 61, 77, 77, 94, 105, 108, 115, 138, 162, 176, 192, 221, 249, 279, 315, 345, 355, 357, 364, 348, 303, 242, 164, 96, 47, 7, -16, -30, -35, -44, -61, -63, -68, -84, -77, -61, -58]"
1713644265810012370,"[-51, -32, -21, -21, -16, -4, 2, 2, -11, -30, -25, -21, -21, -16, -18, -28, -35, -37, -28, -25, -30, -18, -11, -16, -14, -18, -28, -23, -9, -9, -4, 9, 11, 16, 21, 21, 28, 35, 37, 42, 47, 51, 54, 56, 58, 82, 103, 103, 98, 84, 63, 65, 75, 70, 70, 75, 75, 68, 63, 63, 61, 166, 580, 1110, 1147, 385, -333, -145, 164, -9, -72, 47, 28]"
1713644266371172271,"[-9, 37, 63, 51, 61, 65, 54, 65, 91, 101, 108, 119, 136, 159, 183, 206, 223, 242, 272, 310, 341, 355, 350, 331, 296, 239, 166, 94, 35, -11, -37, -44, -47, -49, -51, -47, -35, -25, -14, -9, -11, -7, 4, 18, 30, 32, 28, 28, 25, 21, 28, 35, 25, 16, 9, -4, 2, 14, 7, 9, 23, 30, 28, 16, 9, 14, 23, 25, 18, 9, -4, -11, 0]"
1713644266932301650,"[9, 4, -2, -18, -21, -4, 0, -9, -21, -18, -9, 4, 14, 16, 18, 28, 47, 70, 75, 61, 39, 25, 35, 47, 51, 58, 56, 51, 61, 70, 63, 96, 369, 912, 1305, 931, -2, -293, 94, 98, -108, -14, 56, -4, 4, 44, 35, 18, 25, 42, 47, 54, 72, 91, 108, 119, 134, 155, 183, 216, 246, 277, 303, 326, 348, 362, 359, 333, 277, 211, 141, 70, 11]"
1713644267493441203,"[-23, -42, -49, -51, -44, -39, -35, -30, -25, -14, -2, -9, -18, -14, -2, 4, 14, 18, 18, 23, 30, 35, 44, 42, 37, 44, 47, 49, 58, 63, 56, 44, 44, 56, 58, 56, 58, 63, 63, 54, 30, 23, 37, 44, 39, 49, 58, 51, 58, 65, 54, 47, 49, 51, 54, 49, 39, 35, 32, 21, 23, 30, 16, 4, 9, 21, 42, 61, 61, 47, 25, 14, 23]"
1713644268054590926,"[30, 28, 30, 37, 42, 44, 49, 37, 37, 223, 724, 1222, 1058, 155, -366, -28, 131, -84, -61, 39, -2, -14, 21, 23, 25, 42, 49, 58, 75, 89, 103, 108, 103, 105, 131, 164, 185, 211, 246, 275, 305, 331, 343, 341, 319, 282, 225, 157, 94, 35, -4, -23, -32, -44, -58, -61, -51, -44, -35, -21, -11, -11, -11, 2, 21, 25, 28, 25, 23, 35, 49, 49, 44]"
1713644268615720305,"[42, 44, 54, 58, 58, 54, 32, 21, 32, 47, 49, 54, 44, 30, 39, 51, 56, 54, 47, 51, 61, 65, 70, 72, 61, 37, 35, 61, 61, 47, 47, 58, 65, 68, 72, 72, 65, 72, 75, 63, 65, 68, 65, 77, 79, 61, 32, 2, -14, -4, 2, 2, 9, 9, 0, 9, 23, 16, 23, 214, 705, 1192, 1041, 162, -381, -56, 127, -84, -65, 44, 0, -14, 25]"
1713644269176849684,"[30, 35, 61, 63, 47, 56, 82, 96, 105, 110, 108, 127, 162, 192, 221, 256, 286, 293, 293, 305, 310, 291, 249, 185, 112, 51, 4, -37, -63, -65, -65, -63, -58, -56, -51, -51, -54, -42, -32, -28, -16, -9, 0, 11, 16, 23, 30, 35, 37, 37, 47, 49, 47, 47, 54, 61, 61, 58, 61, 61, 65, 72, 68, 70, 77, 72, 75, 75, 70, 65, 70, 72, 79]"
1713644269737979063,"[87, 79, 79, 94, 108, 122, 115, 68, 35, 35, 18, -9, -21, -18, -18, -25, -28, -21, -23, -28, 65, 439, 983, 1178, 552, -315, -303, 87, -37, -166, -39, -21, -61, -25, 0, -7, 7, 25, 37, 47, 61, 70, 82, 101, 124, 145, 164, 185, 218, 258, 298, 324, 343, 355, 355, 341, 296, 223, 136, 51, -4, -32, -51, -65, -72, -70, -63, -54, -42, -35, -35, -32, -18]"
1713644270299138964,"[-7, 0, 4, -4, -18, -14, 4, 14, 14, 4, -11, -7, 9, 16, 14, 9, 11, 14, 7, 7, 16, 16, 14, 23, 37, 39, 42, 39, 37, 49, 56, 61, 65, 58, 58, 68, 75, 77, 77, 70, 72, 79, 87, 89, 89, 79, 79, 94, 96, 87, 70, 47, 51, 63, 63, 61, 49, 32, 30, 28, 28, 32, 28, 18, 30, 44, 42, 47, 65, 56, 28, 18, 21]"
1713644270860268343,"[11, 2, 7, 18, 23, 30, 37, 35, 21, 2, 77, 437, 997, 1237, 653, -228, -284, 103, 16, -141, -28, 7, -39, -4, 28, 9, 18, 47, 56, 68, 79, 84, 91, 115, 138, 152, 169, 190, 216, 251, 282, 296, 310, 331, 343, 333, 308, 258, 183, 110, 58, 18, -11, -30, -39, -39, -39, -30, -21, -16, -14, -23, -39, -32, -11, -9, -7, 4, 14, 16, 25, 30, 23]"
1713644271421412983,"[14, 11, 21, 30, 28, 30, 35, 35, 39, 39, 25, 18, 32, 39, 35, 42, 44, 44, 56, 56, 58, 65, 63, 65, 75, 75, 72, 72, 61, 58, 63, 56, 39, 25, 23, 23, 14, 4, 11, 18, 16, 18, 23, 23, 28, 30, 30, 37, 42, 42, 47, 51, 54, 49, 28, 18, 39, 61, 70, 75, 65, 47, 39, 35, 25, 28, 35, 37, 42, 47, 54, 47, 77]"
1713644271982557619,"[343, 879, 1279, 928, 0, -312, 75, 89, -136, -49, 35, -28, -16, 28, 21, 28, 56, 65, 68, 77, 89, 103, 117, 119, 119, 138, 171, 202, 235, 270, 296, 317, 341, 357, 357, 329, 270, 204, 141, 82, 35, 0, -32, -47, -39, -35, -35, -51, -72, -65, -47, -37, -23, -14, -14, -16, -14, -2, 9, 16, 14, 16, 30, 35, 37, 39, 37, 37, 47, 54, 61, 54, 47]"
1713644272543712433,"[51, 65, 70, 68, 58, 44, 47, 56, 51, 49, 32, -2, -2, 7, -16, -25, -18, -18, -16, -7, 2, 11, 7, 0, 14, 32, 30, 28, 32, 32, 42, 51, 47, 51, 61, 58, 65, 70, 72, 79, 82, 77, 72, 70, 61, 51, 44, 37, 42, 63, 70, 63, 61, 61, 68, 211, 653, 1180, 1194, 404, -317, -105, 202, 4, -65, 61, 44, 14, 63, 72, 58, 70, 89]"
1713644273104846895,"[96, 108, 119, 119, 129, 141, 143, 150, 157, 176, 216, 254, 291, 319, 338, 357, 362, 343, 298, 230, 152, 79, 23, -16, -39, -56, -61, -61, -56, -44, -37, -44, -47, -58, -68, -49, -28, -37, -42, -30, -30, -28, -18, -14, -11, -16, -25, -32, -32, -30, -28, -25, -21, -16, -14, -11, -2, 2, -2, 4, 14, 14, 16, 25, 30, 30, 32, 39, 44, 35, 23, 30, 37]"
1713644273665981365,"[37, 44, 54, 51, 56, 56, 61, 72, 77, 75, 77, 91, 108, 124, 119, 96, 68, 51, 51, 61, 65, 61, 61, 65, 72, 61, 23, 49, 331, 881, 1286, 914, -49, -359, 56, 91, -112, -25, 49, -16, -7, 39, 37, 44, 65, 68, 72, 82, 98, 115, 124, 131, 145, 169, 199, 228, 261, 286, 315, 345, 362, 357, 348, 312, 246, 174, 110, 54, 0, -39, -58, -58, -56]"
1713644274227136175,"[-54, -47, -47, -47, -30, -21, -16, -16, -35, -39, -16, -2, 4, 7, 7, 11, 23, 25, 2, -21, -23, -11, -2, 4, 11, 9, 2, 9, 23, 18, 11, 9, 7, 11, 14, 11, 9, -2, -14, -4, 7, 7, 11, 11, 7, 14, 25, 30, 32, 28, 23, 23, 18, 23, 32, 30, 28, 37, 49, 54, 54, 56, 54, 61, 72, 75, 75, 72, 72, 79, 87, 91, 94]"
1713644274788280815,"[89, 89, 96, 110, 129, 138, 127, 108, 98, 94, 79, 51, 30, 35, 51, 61, 51, 35, 18, 56, 324, 865, 1270, 907, -35, -350, 63, 124, -79, -25, 47, 9, 9, 28, 16, 39, 94, 98, 79, 89, 94, 96, 124, 127, 112, 152, 195, 183, 197, 277, 331, 326, 310, 341, 385, 366, 296, 199, 119, 89, 42, -49, -77, -14, 11, -18, -30, -23, -23, -39, -25, 18, 0]"
1713644275349425451,"[-42, 11, 44, -14, -44, -18, -16, -35, -32, -16, 4, 2, -16, -25, -16, 9, 32, 32, 23, 16, 4, -4, 23, 42, 4, -7, -4, -21, 2, 21, -7, -16, -4, -11, -9, -7, -7, 14, 35, 18, 4, 30, 32, 16, 44, 49, 28, 65, 84, 30, 25, 75, 89, 87, 79, 42, 49, 103, 103, 98, 101, 65, 56, 122, 152, 82, 42, 98, 115, 75, 68, 63, 63]"
1713644275910554830,"[112, 131, 98, 101, 108, 56, 25, 58, 77, 79, 101, 84, 56, 70, 72, 152, 552, 1105, 1246, 609, -202, -171, 183, 30, -101, 42, 49, 16, 65, 32, 0, 65, 110, 103, 112, 112, 94, 117, 157, 159, 162, 206, 244, 258, 291, 322, 326, 366, 406, 388, 395, 411, 310, 164, 115, 84, 4, -32, -21, -42, -94, -112, -87, -68, -75, -63, -61, -65, -47, -32, -30, -21, -11]"
1713644276471714731,"[2, 4, -2, 4, 16, 2, 4, 7, -35, -58, -21, -23, -54, -25, 2, -18, -35, -35, -25, -9, -21, -28, 23, 32, 2, 9, 16, 16, 23, 32, 42, 51, 56, 51, 44, 51, 68, 84, 108, 119, 108, 89, 72, 70, 68, 61, 70, 77, 58, 51, 58, 54, 47, 94, 385, 912, 1194, 724, -134, -305, 68, 65, -98, -16, 37, -14, 14, 49, 32, 58, 91, 72, 79]"
1713644277032844110,"[112, 112, 108, 129, 152, 159, 176, 209, 232, 251, 282, 319, 345, 336, 338, 341, 291, 235, 185, 91, 4, -11, -32, -79, -84, -58, -63, -72, -56, -49, -37, -28, -25, -21, -9, -2, 4, 16, 18, -4, 0, 28, 14, 0, 44, 51, -7, -30, -30, -39, -9, -2, -49, -49, -9, -9, -23, -16, -11, -16, -11, 2, 7, 2, 4, 7, 16, 30, 28, 21, 23, 25, 4]"
1713644277593983663,"[2, 51, 70, 25, 32, 65, 39, 23, 56, 65, 35, 28, 54, 51, 18, 35, 70, 77, 89, 89, 72, 87, 115, 127, 122, 112, 96, 77, 75, 84, 75, 56, 56, 65, 70, 58, 49, 94, 343, 825, 1218, 943, 47, -324, 47, 110, -101, -30, 49, -4, 9, 54, 39, 47, 79, 79, 70, 87, 105, 112, 127, 145, 143, 143, 181, 216, 235, 268, 301, 319, 338, 357, 366]"
1713644278155133386,"[331, 268, 221, 166, 87, 18, -18, -39, -58, -61, -49, -42, -47, -63, -58, -37, -28, -21, -21, -21, -16, -16, -21, -16, -9, 2, 7, 4, 7, 9, 21, 30, 0, -28, -2, 11, -4, -4, 18, 23, -4, -4, 21, 16, -14, -16, 14, 4, -28, -16, 7, 0, -7, -18, -14, 9, 0, 4, 30, 23, 14, 28, 28, 32, 42, 37, 35, 42, 47, 54, 61, 58, 51]"
1713644278716262765,"[65, 75, 70, 75, 77, 75, 79, 82, 82, 70, 56, 72, 70, 44, 54, 89, 103, 96, 89, 84, 72, 56, 61, 68, 37, 16, 35, 47, 42, 47, 47, 171, 623, 1157, 1145, 355, -308, -87, 166, -37, -65, 63, 16, -23, 25, 42, 37, 47, 68, 84, 84, 89, 110, 127, 129, 148, 169, 185, 216, 242, 258, 303, 350, 355, 366, 383, 371, 331, 251, 169, 131, 75, -7]"
1713644279277422662,"[-42, -47, -51, -49, -61, -72, -68, -75, -72, -44, -32, -39, -37, -28, -21, -11, -9, -30, -44, -21, 0, -11, -7, 23, 18, 0, 11, 28, 32, 32, 23, 35, 49, 32, 11, 0, 4, 21, 21, 11, 11, 11, -7, -21, 0, 16, 7, 4, 9, 16, 28, 28, 23, 14, 16, 44, 58, 44, 44, 49, 39, 54, 75, 68, 68, 75, 75, 82, 89, 68, 39, 37, 42]"
1713644279838552041,"[49, 68, 68, 49, 39, 32, 44, 61, 150, 522, 1051, 1145, 444, -301, -181, 131, -25, -105, 21, 23, -9, 25, 32, 23, 51, 70, 54, 42, 61, 82, 96, 110, 127, 148, 159, 183, 237, 284, 312, 333, 348, 371, 385, 364, 319, 251, 166, 98, 37, -4, -21, -49, -75, -63, -42, -35, -35, -42, -54, -54, -39, -25, -23, -25, -16, 0, 4, 7, 23, 32, 32, 35, 30]"
1713644280399711942,"[7, -14, -16, -9, -14, -28, -35, -44, -51, -49, -49, -44, -32, -39, -42, -16, -11, -30, -28, -16, -28, -23, 7, 7, 0, 23, 25, 14, 30, 42, 37, 35, 32, 37, 51, 65, 68, 61, 63, 65, 68, 75, 87, 94, 87, 75, 89, 108, 101, 94, 103, 110, 105, 84, 63, 77, 91, 68, 70, 101, 91, 77, 91, 87, 72, 178, 562, 1091, 1232, 547, -251, -164, 162]"
1713644280960841321,"[9, -84, 37, 35, -14, 28, 54, 30, 42, 65, 32, 16, 44, 61, 63, 77, 96, 101, 134, 202, 218, 195, 235, 310, 355, 362, 355, 338, 303, 249, 176, 108, 58, 9, -30, -47, -54, -61, -58, -35, -28, -49, -44, -21, -25, -39, -18, 7, 11, 16, 18, 16, 25, 37, 39, 39, 37, 21, 9, -9, -18, -7, -14, -39, -42, -28, -14, -21, -35, -42, -51, -18, 21]"
1713644281522001218,"[-11, -44, -28, 4, 16, -4, -7, 2, -16, -23, -2, 2, 4, 21, 25, 23, 32, 39, 42, 42, 42, 51, 63, 65, 58, 61, 70, 75, 82, 89, 89, 72, 58, 65, 84, 87, 72, 61, 82, 110, 94, 79, 105, 122, 110, 110, 119, 87, 65, 84, 89, 72, 54, 47, 54, 49, 35, 37, 143, 536, 1072, 1201, 543, -237, -185, 138, -4, -127, -4, 25, -2, 28, 39]"
1713644282083130597,"[28, 37, 49, 58, 79, 84, 84, 96, 117, 138, 143, 136, 145, 190, 251, 275, 279, 317, 357, 357, 341, 317, 254, 166, 101, 44, -4, -32, -54, -65, -68, -65, -56, -35, -32, -39, -39, -25, -2, 7, -2, 0, 18, 21, -2, -9, -2, 4, 7, 11, 9, -2, -2, 9, -2, -25, -23, -23, -39, -44, -37, -23, -11, -14, -16, -7, -4, 0, 14, 14, 14, 23, 25]"
1713644282644259976,"[28, 37, 37, 42, 51, 47, 49, 58, 63, 68, 68, 63, 70, 79, 70, 61, 75, 87, 94, 101, 89, 72, 65, 58, 61, 63, 63, 70, 75, 75, 87, 94, 79, 124, 423, 947, 1220, 733, -131, -286, 98, 79, -89, -2, 51, 0, -2, 23, 28, 32, 49, 61, 72, 84, 89, 96, 112, 134, 155, 169, 183, 214, 258, 296, 322, 348, 366, 373, 369, 338, 277, 195, 117]"
1713644283205419877,"[56, 16, -16, -47, -63, -72, -72, -63, -54, -49, -51, -65, -65, -42, -28, -32, -28, -16, -4, 2, 11, 16, 14, 16, 28, 35, 35, 28, 7, -14, -18, -7, -7, -16, -25, -35, -42, -49, -51, -37, -37, -44, -28, -11, -7, -7, -14, -7, 4, 14, 23, 23, 16, 28, 39, 42, 49, 51, 44, 44, 68, 91, 103, 98, 79, 61, 56, 65, 68, 47, 32, 44, 54]"
1713644283766549256,"[58, 68, 56, 54, 254, 771, 1281, 1140, 218, -371, -47, 141, -79, -61, 39, -18, -25, 37, 30, 25, 63, 65, 30, 39, 75, 72, 70, 87, 91, 110, 143, 159, 183, 223, 254, 263, 272, 275, 261, 239, 209, 148, 70, 11, -28, -72, -98, -101, -101, -98, -91, -89, -77, -56, -47, -47, -47, -35, -7, -2, -23, -25, -9, -2, 4, 21, 23, 16, 16, 30, 44, 42, 35]"
1713644284327678635,"[44, 39, 37, 54, 56, 47, 54, 63, 63, 65, 72, 47, 23, 32, 21, -11, -21, -14, -18, -44, -58, -44, -32, -35, -32, -28, -30, -23, -11, -7, -7, -9, -9, -2, 2, -4, 2, 23, 28, 35, 49, 56, 39, 11, 7, 35, 54, 56, 42, 0, 7, 47, 30, 9, 75, 348, 837, 1138, 717, -117, -291, 82, 75, -77, 11, 42, -9, 30, 58, 35, 39, 65, 96]"
1713644284888808014,"[110, 68, 51, 101, 124, 127, 138, 127, 117, 141, 174, 199, 237, 279, 319, 329, 286, 249, 209, 155, 98, 47, 23, 23, -2, -11, 25, 49, 77, 134, 176, 183, 148, 103, 103, 134, 169, 183, 136, 115, 202, 256, 232, 242, 291, 319, 352, 413, 435, 376, 352, 413, 439, 404, 378, 364, 345, 355, 371, 319, 275, 308, 312, 244, 204, 209, 188, 159, 164, 169, 152, 96, 44]"
1713644285449957741,"[61, 70, 39, 47, 49, 0, -25, 16, 32, -21, -35, 0, 4, 2, 72, 331, 771, 992, 547, -195, -291, 65, 47, -98, -23, 21, -14, 11, 42, 28, 25, 49, 63, 65, 65, 65, 77, 101, 115, 131, 166, 192, 204, 246, 289, 305, 326, 341, 345, 341, 305, 251, 185, 94, 25, -4, -16, -16, -25, -44, -51, -30, -18, -16, -14, -39, -68, -54, -21, -14, -14, 9, 21]"
1713644286011097290,"[21, 35, 32, 28, 49, 58, 49, 44, 42, 39, 49, 54, 49, 47, 51, 63, 65, 58, 75, 94, 82, 72, 94, 96, 77, 72, 82, 87, 91, 94, 96, 105, 105, 94, 112, 162, 181, 162, 143, 134, 124, 122, 127, 134, 129, 124, 127, 134, 131, 124, 122, 225, 597, 1079, 1147, 479, -221, -129, 115, -44, -110, -9, -28, -58, -7, 9, -2, 16, 37, 49, 58, 63, 84]"
1713644286572226669,"[101, 105, 127, 150, 162, 185, 206, 223, 256, 303, 329, 329, 324, 322, 289, 197, 101, 47, 7, -28, -47, -58, -65, -70, -54, -21, -16, -28, -18, -2, 4, 7, 16, 25, 25, 30, 39, 44, 51, 54, 51, 58, 72, 75, 65, 58, 42, 2, -7, 68, 89, 25, 61, 103, 51, 42, 70, 58, 65, 77, 35, 35, 110, 119, 79, 87, 96, 84, 105, 127, 98, 84, 119]"
1713644287133386570,"[131, 122, 127, 110, 82, 84, 91, 94, 101, 82, 54, 79, 131, 148, 143, 131, 105, 108, 134, 127, 94, 63, 77, 138, 159, 157, 155, 185, 475, 1016, 1364, 1006, 98, -272, 82, 176, 7, 56, 103, 28, 37, 79, 63, 42, 42, 47, 56, 58, 89, 119, 94, 87, 148, 178, 192, 225, 244, 268, 308, 326, 336, 350, 326, 296, 289, 239, 143, 75, 30, -4, -21, -35, -51]"
1713644287694546467,"[-49, -44, -58, -51, -2, 14, -7, -2, 11, 9, 16, 25, 14, 2, 9, 18, 21, 28, 25, 21, 11, 9, 25, 37, 47, 58, 58, 65, 68, 44, 23, 18, 16, 42, 79, 39, -2, 30, 51, 30, 23, 47, 61, 35, 18, 51, 61, 47, 44, 51, 56, 54, 56, 75, 77, 63, 56, 68, 87, 77, 70, 70, 58, 75, 112, 108, 77, 58, 51, 68, 79, 68, 58]"
1713644288255706364,"[61, 49, 49, 58, 44, 44, 199, 611, 1072, 1065, 303, -392, -199, 82, -98, -150, -21, -32, -65, -18, -9, -30, -25, -14, 2, 28, 51, 49, 23, 32, 79, 94, 110, 155, 195, 218, 251, 282, 293, 298, 322, 326, 286, 216, 138, 75, 35, 2, -39, -44, -25, -49, -68, -49, -61, -63, -30, -16, -18, -14, -7, 2, 2, 2, 23, 42, 35, 21, 37, 49, 44, 49, 51]"
1713644288816856091,"[44, 44, 49, 68, 84, 77, 51, 37, 47, 51, 54, 58, 39, 25, 39, 61, 65, 58, 47, 47, 39, 21, 28, 56, 49, 28, 54, 87, 94, 98, 91, 63, 49, 44, 42, 32, 37, 56, 42, 28, 35, 25, 4, 68, 388, 903, 1150, 620, -275, -362, 87, 30, -148, -32, -7, -68, -18, 30, 14, 9, 23, 39, 58, 70, 77, 79, 87, 112, 143, 162, 178, 206, 249]"
1713644289378021075,"[272, 284, 301, 310, 305, 284, 246, 195, 129, 54, -25, -77, -101, -129, -150, -143, -136, -134, -117, -96, -84, -82, -77, -68, -56, -44, -32, -23, -21, -21, -14, -4, 4, 4, -4, -16, -9, 9, 14, 4, -4, 2, 21, 32, 30, 35, 37, 32, 35, 47, 56, 47, 42, 51, 61, 65, 63, 58, 58, 61, 65, 77, 75, 72, 75, 72, 70, 79, 87, 87, 77, 56, 35]"
1713644289939155537,"[30, 30, 25, 14, 0, -9, -32, -75, -77, -56, -30, 221, 764, 1161, 816, -103, -420, -25, 21, -176, -87, -14, -77, -58, -9, -18, -23, -7, 7, 21, 35, 51, 65, 77, 94, 115, 141, 162, 190, 225, 256, 286, 312, 319, 326, 336, 303, 239, 169, 101, 49, 11, -21, -42, -49, -47, -44, -44, -56, -58, -39, -30, -25, -16, -9, -2, 4, 9, 16, 23, 25, 28, 14]"
1713644290500315438,"[-4, 4, 16, 7, -7, -16, -7, 9, 11, 2, 7, 21, 28, 30, 35, 35, 35, 28, 28, 42, 39, 32, 42, 54, 54, 58, 63, 54, 51, 61, 75, 84, 79, 75, 84, 103, 122, 119, 94, 72, 70, 77, 77, 77, 79, 77, 68, 61, 61, 47, 42, 230, 719, 1185, 1025, 127, -423, -89, 79, -143, -115, -2, -54, -65, -18, -28, -56, -30, -11, -21, -7, 16, 35]"
1713644291061454991,"[58, 70, 75, 105, 138, 164, 202, 242, 258, 272, 305, 329, 315, 265, 195, 131, 70, 9, -30, -63, -89, -94, -87, -79, -63, -61, -70, -56, -35, -28, -18, -14, -11, 2, 11, 14, 25, 35, 28, 23, 23, 18, 25, 28, 23, 32, 49, 49, 44, 49, 47, 56, 70, 68, 63, 68, 63, 51, 35, 35, 39, 42, 51, 58, 63, 87, 98, 91, 77, 68, 63, 65, 58]"
1713644291622604714,"[47, 49, 61, 65, 63, 63, 68, 65, 134, 472, 1004, 1213, 639, -218, -268, 129, 47, -105, 11, 39, -16, 21, 51, 35, 39, 49, 47, 58, 68, 77, 91, 79, 63, 89, 96, 87, 141, 197, 228, 277, 315, 336, 355, 357, 317, 246, 171, 98, 47, 25, 7, -11, 9, 54, 51, 9, -16, -35, -61, -72, -65, -58, -58, -68, -65, -47, -51, -63, -56, -54, -47, -25, -28]"
1713644292183754441,"[-30, -18, -25, -18, 39, 39, -35, -47, -30, -49, -37, 7, 37, 14, -30, 9, 51, 7, -14, 44, 94, 39, -37, 7, 68, 37, 30, 54, 42, 77, 108, 39, 18, 101, 148, 89, 9, 23, 72, 91, 117, 124, 58, 0, 14, 0, -14, 54, 82, 32, -9, 14, 96, 324, 804, 1262, 1018, 77, -355, 2, 145, -51, -75, -2, -25, -35, 11, 28, 35, 63, 49, 16, 49]"
1713644292744893990,"[68, 39, 70, 112, 110, 115, 148, 188, 199, 225, 310, 348, 322, 326, 317, 246, 202, 152, 70, 16, 0, -25, -70, -68, -4, 16, -28, -44, -25, -2, 21, 11, 0, 30, 35, 4, 11, 30, 30, 42, 56, 42, 30, 30, 42, 72, 63, 21, 32, 49, 42, 51, 54, 47, 54, 65, 68, 56, 49, 56, 58, 70, 79, 72, 68, 54, 44, 94, 143, 105, 63, 61, 65]"
1713644293306053891,"[77, 75, 54, 47, 30, 28, 65, 72, 21, -23, 96, 512, 1025, 1161, 583, -218, -263, 51, -65, -155, -25, -37, -84, -30, -18, -47, -25, -21, -49, -39, -16, -11, 2, 23, 37, 56, 75, 79, 101, 141, 178, 211, 254, 277, 270, 242, 176, 94, 25, -44, -96, -115, -119, -119, -129, -134, -105, -87, -96, -94, -70, -47, -16, 2, 21, 44, 32, -7, -56, -54, 21, 54, 23]"
1713644293867183270,"[58, 101, 54, 4, 51, 98, 51, 0, 14, 42, 49, 54, 98, 143, 96, 16, 39, 91, 42, 25, 82, 65, 35, 68, 94, 94, 101, 94, 49, 30, 68, 68, 28, 39, 82, 108, 124, 79, 9, 47, 124, 124, 150, 439, 1032, 1305, 597, -246, -103, 228, 16, -77, 56, 9, -25, 87, 122, 61, 49, 75, 44, 39, 101, 112, 89, 98, 122, 157, 199, 195, 169, 209, 282]"
1713644294428312649,"[319, 315, 324, 322, 263, 190, 131, 63, -54, -155, -155, -127, -152, -159, -112, -148, -235, -192, -134, -159, -150, -157, -169, -108, -101, -115, -47, -28, -56, -39, -51, -72, -30, -9, -28, -14, 42, 84, 65, -14, -44, 18, 65, 89, 61, -14, 11, 87, 65, 28, 37, 42, 51, 61, 65, 108, 94, 0, -11, 51, 94, 145, 143, 39, 37, 115, 68, 25, 91, 127, 96, 35, 11]"
1713644294989472546,"[75, 134, 110, 82, 176, 545, 1081, 1225, 524, -310, -214, 159, -32, -185, -30, 4, -51, -23, 14, 11, 11, 35, 51, 49, 56, 61, 68, 96, 119, 124, 150, 204, 216, 192, 221, 251, 261, 301, 319, 279, 218, 127, 39, -2, -35, -68, -79, -79, -98, -124, -112, -87, -70, -61, -37, -9, 4, -9, -51, -39, 7, -11, -30, 30, 63, 42, 68, 56, -23, 9, 68, 7, -18]"
1713644295550601925,"[-11, -18, 44, 54, -32, -16, 39, -4, -14, 61, 65, -7, -18, 49, 68, -16, -25, 56, 65, 58, 87, 77, 82, 94, 42, 47, 91, 39, 28, 108, 129, 115, 136, 115, 72, 101, 122, 72, 51, 94, 105, 84, 103, 112, 61, 65, 134, 122, 82, 192, 555, 1063, 1206, 547, -216, -127, 204, 68, -32, 94, 103, 35, 72, 108, 49, 14, 44, 63, 82, 94, 63, 94, 124]"
1713644296111766910,"[77, 91, 164, 199, 232, 251, 188, 169, 228, 228, 235, 244, 178, 129, 105, 42, -75, -162, -105, -21, -94, -197, -129, -72, -136, -82, 16, -47, -103, -47, -21, -30, 2, -14, -54, -4, 56, 18, -35, 30, 110, 89, 42, 7, -21, 7, 39, 42, 47, 39, 35, 63, 79, 54, 39, 54, 37, 16, 30, 37, 32, 32, 42, 58, 56, 7, -51, -87, -105, -105, -108, -141, -162]"
1713644296672891205,"[-157, -176, -188, -181, -202, -214, -54, 331, 651, 468, -230, -627, -364, -209, -362, -364, -275, -286, -286, -230, -221, -223, -178, -134, -115, -98, -72, -49, -44, -30, 0, 21, 32, 49, 70, 89, 110, 134, 131, 119, 105, 72, 4, -56, -98, -148, -192, -206, -216, -228, -216, -192, -176, -157, -129, -105, -94, -79, -61, -37, -16, 9, 28, 32, 44, 61, 68, 75, 84, 79, 77, 91, 103]"
1713644297234020584,"[98, 101, 110, 101, 101, 108, 82, 54, 65, 82, 79, 84, 101, 122, 131, 119, 98, 96, 103, 101, 101, 108, 115, 117, 112, 112, 124, 117, 141, 395, 886, 1194, 804, -14, -206, 152, 152, -16, 49, 84, 35, 44, 56, 54, 68, 77, 87, 98, 105, 119, 136, 145, 159, 178, 197, 223, 254, 279, 310, 341, 359, 364, 352, 324, 275, 202, 122, 56, 2, -47, -89, -110, -103]"
1713644297795160137,"[-94, -91, -87, -72, -63, -56, -42, -28, -28, -35, -39, -37, -18, -11, -11, -2, 2, 11, 23, 30, 30, 30, 35, 47, 56, 58, 58, 56, 54, 54, 54, 54, 56, 51, 37, 30, 44, 54, 58, 75, 89, 96, 84, 65, 58, 58, 61, 68, 75, 77, 77, 77, 79, 72, 75, 256, 738, 1239, 1114, 244, -286, 4, 134, -75, -42, 58, 11, 2, 44, 42, 42, 68, 79]"
1713644298356309860,"[77, 82, 98, 110, 127, 148, 152, 143, 159, 199, 232, 258, 282, 293, 310, 331, 319, 279, 221, 145, 70, 18, -9, -32, -65, -77, -72, -82, -103, -105, -101, -115, -115, -87, -70, -72, -70, -65, -49, -37, -35, -25, -23, -25, -18, -4, 2, 4, 2, 2, 9, 21, 14, 2, 7, 16, 21, 30, 39, 39, 39, 42, 51, 58, 58, 61, 65, 68, 70, 82, 89, 84, 82]"
1713644298917459587,"[98, 122, 131, 127, 108, 87, 79, 91, 96, 84, 68, 47, 39, 54, 63, 42, 42, 225, 684, 1143, 1006, 169, -336, -37, 105, -89, -56, 42, -9, -16, 30, 30, 32, 54, 61, 63, 77, 94, 108, 112, 127, 145, 157, 169, 185, 211, 242, 268, 284, 301, 310, 310, 279, 223, 159, 101, 56, 18, -9, -21, -28, -30, -25, -21, -11, -4, -2, 0, 0, -9, -2, 7, 4]"
1713644299478599136,"[0, -2, -16, -35, -39, -35, -37, -51, -63, -51, -42, -44, -56, -77, -77, -58, -51, -51, -44, -35, -30, -18, -11, -11, -4, 2, 4, 18, 39, 54, 56, 44, 25, 25, 23, 9, 7, 16, 23, 30, 37, 39, 32, 18, 75, 371, 877, 1154, 689, -136, -244, 119, 65, -87, 7, 37, -4, 30, 56, 35, 37, 61, 70, 75, 89, 96, 96, 98, 117, 141, 162, 176, 192]"
1713644300039759037,"[218, 254, 279, 293, 296, 279, 242, 202, 155, 84, 2, -63, -84, -84, -91, -96, -98, -94, -77, -63, -54, -49, -47, -42, -35, -44, -58, -54, -49, -51, -49, -47, -47, -58, -70, -61, -51, -47, -37, -39, -47, -35, -18, -9, -7, -9, -14, -4, 9, 14, 16, 25, 42, 56, 56, 47, 35, 16, 2, 11, 25, 30, 32, 32, 32, 37, 39, 30, 124, 482, 971, 1067, 404]"
1713644300600888416,"[-298, -174, 115, -39, -108, 11, 7, -42, -23, -11, -7, 16, 32, 37, 44, 51, 56, 63, 77, 94, 105, 131, 164, 195, 225, 251, 268, 279, 291, 291, 268, 211, 148, 89, 42, 7, -14, -25, -39, -42, -30, -21, -21, -18, -11, 0, 7, 4, -4, -11, -9, -4, -2, -9, -16, -21, -32, -39, -28, -21, -28, -23, -16, -18, -28, -44, -47, -35, -30, -28, -16, -4, -7]"
1713644301162048313,"[0, 7, 9, 18, 28, 23, 30, 30, 18, 18, 25, 18, 32, 56, 58, 42, 28, 23, 30, 37, 37, 44, 51, 51, 56, 63, 58, 61, 192, 592, 1053, 1034, 305, -282, -58, 169, -9, -37, 68, 30, -4, 39, 58, 51, 58, 72, 79, 84, 101, 112, 119, 134, 150, 166, 185, 209, 228, 237, 246, 268, 296, 303, 289, 263, 216, 155, 103, 54, 7, -23, -32, -42, -51]"
1713644301723192953,"[-56, -65, -75, -63, -42, -30, -37, -56, -77, -89, -77, -58, -58, -63, -61, -54, -42, -28, -25, -30, -28, -21, -11, -4, -2, -4, -2, 11, 25, 30, 21, 4, 4, 16, 28, 35, 37, 35, 54, 82, 84, 75, 61, 37, 37, 56, 56, 51, 58, 58, 44, 32, 30, 37, 79, 336, 823, 1100, 674, -124, -272, 98, 84, -84, 0, 56, 2, 9, 51, 56, 61, 82, 82]"
1713644302284337589,"[79, 98, 117, 127, 141, 150, 159, 183, 216, 242, 263, 272, 272, 293, 315, 308, 289, 244, 178, 117, 65, 18, -28, -61, -68, -61, -49, -42, -42, -37, -32, -21, -7, 4, 11, 7, 0, 4, 16, 18, 14, 7, -9, -32, -51, -49, -39, -39, -42, -32, -18, -16, -16, -21, -30, -30, -18, -9, -4, -2, 0, 14, 28, 30, 37, 56, 70, 75, 68, 51, 39, 39, 44]"
1713644302845492403,"[54, 63, 63, 61, 65, 65, 68, 61, 112, 418, 926, 1140, 595, -209, -244, 119, 39, -94, 16, 44, -7, 23, 56, 47, 51, 72, 77, 82, 98, 112, 122, 131, 143, 162, 190, 199, 199, 218, 251, 277, 291, 301, 301, 277, 223, 150, 79, 30, -7, -37, -49, -47, -47, -49, -39, -30, -25, -11, -2, 0, 7, 14, 18, 23, 14, 11, 23, 21, 14, 14, 9, -2, -14]"
1713644303406626865,"[-14, -7, -2, -7, -23, -39, -49, -39, -23, -16, -16, -14, -11, -2, 9, 14, 14, 14, 23, 32, 42, 49, 44, 42, 54, 61, 68, 72, 51, 28, 42, 79, 91, 82, 63, 47, 39, 42, 47, 51, 49, 49, 58, 70, 75, 63, 75, 286, 766, 1161, 905, 75, -272, 70, 145, -42, 11, 84, 23, 28, 77, 72, 72, 91, 91, 94, 110, 124, 119, 115, 127, 141, 159]"
1713644303967786766,"[188, 218, 235, 235, 249, 284, 301, 303, 289, 244, 188, 131, 79, 35, -11, -54, -61, -51, -47, -51, -65, -91, -110, -96, -79, -75, -72, -79, -82, -63, -47, -47, -47, -44, -32, -21, -16, -11, -9, -11, -4, 9, 16, 18, 16, 16, 25, 39, 42, 39, 42, 44, 49, 58, 63, 61, 61, 63, 63, 54, 49, 54, 56, 56, 63, 72, 72, 70, 72, 77, 82, 87, 89]"
1713644304528946663,"[87, 84, 87, 91, 108, 124, 129, 122, 105, 89, 84, 79, 63, 51, 35, 18, 25, 39, 32, 14, 11, 148, 559, 1037, 1039, 319, -296, -89, 155, -30, -70, 47, 18, -9, 42, 54, 42, 56, 68, 77, 94, 98, 101, 117, 131, 145, 162, 169, 176, 202, 216, 225, 239, 251, 254, 235, 197, 159, 98, 25, -21, -56, -87, -103, -105, -110, -101, -89, -87, -82, -72, -65, -54]"
1713644305090076042,"[-44, -37, -32, -25, -18, -11, -18, -47, -49, -35, -37, -35, -18, -16, -25, -35, -30, -14, -9, -14, -2, 7, 9, 18, 25, 25, 23, 30, 39, 44, 47, 47, 49, 54, 56, 63, 72, 70, 65, 70, 77, 70, 54, 54, 65, 68, 70, 75, 82, 87, 101, 117, 122, 108, 87, 70, 72, 84, 87, 87, 91, 89, 84, 94, 91, 101, 277, 714, 1117, 964, 185, -284, -7]"
1713644305651235939,"[119, -89, -72, 30, -9, -30, -16, -32, -37, -21, -9, 0, 7, 14, 35, 56, 70, 84, 98, 122, 157, 188, 221, 251, 263, 275, 289, 286, 258, 197, 117, 56, 2, -47, -65, -72, -89, -87, -70, -63, -56, -51, -54, -39, -23, -11, 2, 4, 2, 11, 23, 30, 37, 35, 30, 37, 47, 54, 56, 49, 44, 54, 63, 65, 54, 32, 28, 44, 51, 54, 56, 54, 54]"
1713644306212395836,"[61, 68, 75, 75, 70, 68, 75, 82, 82, 75, 56, 54, 77, 105, 112, 101, 82, 65, 61, 68, 70, 70, 70, 58, 49, 61, 65, 42, 32, 209, 670, 1124, 987, 162, -359, -65, 98, -103, -91, 2, -42, -49, -2, 0, -7, 11, 23, 30, 42, 56, 65, 77, 91, 108, 129, 145, 150, 157, 185, 218, 242, 263, 270, 256, 221, 162, 98, 44, -4, -39, -58, -68, -65]"
1713644306773555737,"[-63, -61, -51, -44, -42, -30, -30, -47, -42, -18, -11, -7, 2, 4, 4, -2, -2, 9, 16, 16, 23, 28, 25, 30, 39, 39, 44, 51, 51, 51, 54, 56, 63, 65, 63, 63, 63, 68, 75, 75, 75, 75, 75, 79, 84, 87, 72, 56, 54, 54, 35, 25, 37, 39, 37, 44, 56, 58, 58, 56, 63, 72, 75, 77, 82, 89, 91, 91, 87, 65, 42, 30, 30]"
1713644307334685116,"[25, 16, 11, 9, -9, -28, -37, -39, 98, 519, 1013, 1025, 286, -345, -136, 94, -96, -115, 2, -25, -47, -7, 0, 0, 25, 39, 42, 49, 58, 77, 96, 108, 122, 131, 152, 188, 216, 237, 249, 256, 277, 293, 282, 235, 171, 108, 49, 7, -21, -44, -63, -72, -65, -54, -47, -37, -32, -35, -25, -9, 0, 11, 11, 7, 14, 30, 37, 44, 42, 30, 21, 28, 37]"
1713644307895845013,"[39, 35, 30, 39, 49, 49, 54, 51, 49, 54, 61, 63, 56, 39, 35, 44, 54, 56, 54, 49, 47, 56, 63, 68, 70, 65, 63, 72, 70, 58, 54, 56, 58, 63, 65, 54, 28, 25, 39, 39, 32, 32, 35, 32, 28, 28, 25, 23, 14, 4, 9, 16, 23, 25, 25, 42, 61, 68, 61, 47, 32, 18, 11, 23, 32, 30, 30, 35, 39, 42, 32, 79, 385]"
1713644308456974392,"[905, 1178, 707, -112, -230, 117, 58, -89, 11, 42, -25, -14, 25, 25, 30, 49, 56, 61, 75, 77, 75, 84, 103, 122, 141, 164, 195, 209, 214, 244, 272, 277, 284, 284, 242, 183, 124, 65, 18, -11, -32, -42, -42, -44, -39, -32, -30, -16, -7, -7, 2, 7, 0, 4, 16, 18, 21, 25, 35, 44, 44, 42, 47, 49, 49, 56, 56, 56, 58, 54, 58, 70, 70]"
1713644309018134289,"[65, 63, 63, 70, 75, 75, 68, 49, 28, 35, 42, 23, 4, 2, 7, 14, 18, 9, 0, -11, -37, -51, -42, -32, -35, -35, -25, -14, -7, -2, -2, -2, 4, 16, 23, 25, 23, 25, 35, 44, 49, 51, 49, 42, 42, 58, 82, 96, 87, 68, 65, 68, 70, 70, 65, 63, 70, 79, 84, 82, 63, 61, 223, 653, 1121, 1093, 338, -270, -39, 183, -7, -35, 68]"
1713644309579289103,"[39, 14, 47, 51, 39, 49, 61, 70, 89, 103, 94, 82, 91, 103, 101, 124, 155, 169, 202, 246, 275, 293, 305, 296, 277, 239, 178, 115, 54, 0, -25, -30, -32, -39, -51, -61, -49, -32, -23, -16, -16, -16, -2, 16, 23, 25, 25, 23, 23, 28, 32, 35, 25, 11, 9, 11, 4, -4, -9, -4, 2, 9, 14, 7, 0, 2, 2, 2, 7, 9, 7, 11, 23]"
1713644310140423565,"[35, 37, 37, 42, 39, 37, 25, 0, -9, 0, 4, 11, 25, 30, 28, 35, 47, 54, 61, 61, 61, 82, 105, 112, 101, 70, 54, 58, 65, 68, 72, 77, 77, 82, 84, 79, 82, 239, 693, 1161, 1060, 265, -284, -14, 190, -7, -21, 89, 54, 30, 75, 82, 72, 89, 103, 105, 110, 110, 105, 122, 138, 143, 169, 202, 221, 246, 279, 308, 333, 350, 352, 345, 303]"
1713644310701558035,"[221, 148, 89, 25, -25, -63, -84, -79, -75, -77, -72, -70, -61, -44, -35, -37, -47, -44, -25, -9, -9, -2, 4, 11, 18, 32, 30, 18, 11, 16, 23, 23, 14, 4, 0, -7, -7, 0, 2, 0, 2, 7, 9, 11, 14, 9, 11, 16, 9, 4, 9, 11, 9, 18, 30, 35, 37, 37, 37, 47, 56, 58, 61, 58, 47, 30, 28, 39, 49, 61, 77, 89, 84]"
1713644311262712845,"[70, 56, 47, 49, 63, 70, 65, 54, 23, 11, 21, 32, 206, 674, 1154, 1051, 225, -319, -28, 143, -70, -61, 51, 11, 0, 47, 39, 35, 65, 77, 79, 89, 94, 103, 122, 138, 155, 171, 181, 195, 221, 254, 289, 305, 315, 326, 329, 301, 244, 169, 96, 44, 14, -11, -30, -42, -47, -49, -65, -68, -51, -51, -49, -35, -23, -14, -4, -2, -2, 9, 21, 14, 4]"
1713644311823857485,"[7, 11, 16, 25, 35, 32, 25, 28, 35, 39, 39, 25, 14, 23, 32, 37, 37, 30, 16, 16, 28, 32, 28, 14, 7, 7, 0, -2, 7, 2, -11, -18, -11, 0, 0, 0, 2, 7, 16, 23, 25, 28, 32, 35, 42, 49, 49, 49, 54, 56, 49, 30, 18, 32, 39, 37, 47, 58, 56, 58, 75, 94, 94, 72, 58, 54, 49, 49, 58, 65, 61, 65, 75]"
1713644312385002121,"[75, 70, 58, 124, 470, 1001, 1232, 679, -157, -211, 136, 37, -94, 16, 35, -16, 21, 51, 37, 49, 65, 56, 54, 70, 79, 89, 103, 122, 143, 159, 181, 214, 242, 270, 303, 324, 333, 336, 319, 279, 228, 159, 91, 28, -25, -44, -42, -47, -54, -49, -39, -32, -28, -25, -30, -32, -21, -7, 2, 9, 9, 11, 18, 28, 37, 39, 37, 37, 42, 49, 54, 54, 49]"
1713644312946162018,"[44, 51, 63, 65, 65, 49, 32, 30, 32, 28, 28, 28, 16, 0, -2, 4, -9, -25, -18, -7, -4, 0, 4, -2, 0, 11, 18, 25, 25, 21, 23, 32, 39, 47, 49, 37, 18, 9, 21, 32, 28, 25, 35, 44, 42, 32, 30, 32, 39, 51, 58, 63, 61, 63, 70, 77, 89, 108, 117, 108, 105, 101, 87, 82, 84, 84, 89, 94, 101, 110, 98, 79, 89]"
1713644313507291397,"[272, 731, 1197, 1100, 279, -289, -11, 178, -32, -51, 42, 9, -2, 44, 47, 35, 56, 70, 79, 96, 105, 108, 115, 129, 150, 171, 190, 214, 242, 261, 270, 286, 310, 315, 310, 289, 235, 164, 98, 37, -9, -35, -47, -54, -61, -61, -56, -49, -35, -23, -18, -16, -9, 2, 9, 11, 7, 0, 9, 18, 21, 14, 7, 4, -4, -7, 4, 0, -16, -14, -9, -7, 0]"
1713644314068451298,"[4, 7, 7, 4, 9, 16, 0, -16, 0, 9, 9, 18, 25, 23, 30, 35, 37, 44, 47, 51, 58, 61, 49, 30, 23, 32, 30, 21, 28, 39, 35, 39, 56, 56, 58, 72, 87, 105, 108, 87, 70, 68, 72, 77, 75, 75, 82, 89, 87, 89, 77, 98, 352, 872, 1255, 938, 51, -279, 87, 124, -79, -2, 77, 14, 18, 58, 56, 61, 82, 84, 84, 96, 110]"
1713644314629631541,"[122, 136, 141, 152, 176, 202, 228, 256, 282, 293, 301, 324, 338, 324, 279, 202, 112, 44, -9, -58, -87, -101, -101, -91, -84, -77, -75, -70, -61, -44, -39, -47, -51, -44, -30, -23, -25, -30, -37, -44, -42, -28, -21, -23, -28, -25, -18, -11, -7, -9, -25, -25, -11, -2, 2, 4, -2, 0, 16, 30, 32, 30, 28, 30, 39, 47, 54, 51, 49, 54, 63, 68, 72]"
1713644315190740574,"[70, 63, 70, 84, 82, 87, 89, 75, 63, 49, 47, 56, 39, 21, 32, 51, 54, 54, 56, 51, 58, 70, 72, 75, 75, 70, 79, 94, 96, 91, 96, 110, 129, 134, 122, 105, 87, 82, 91, 96, 89, 77, 65, 70, 79, 68, 75, 263, 729, 1190, 1067, 242, -275, 9, 155, -49, -28, 75, 28, 11, 56, 58, 49, 72, 84, 82, 91, 103, 112, 124, 136, 148, 155]"
1713644315751890301,"[159, 162, 174, 206, 239, 263, 282, 293, 296, 268, 204, 136, 75, 23, -16, -47, -68, -70, -70, -70, -63, -54, -58, -58, -54, -44, -35, -39, -49, -47, -47, -56, -68, -72, -58, -44, -47, -44, -35, -32, -28, -18, -18, -11, -2, -7, -4, 9, 14, 16, 21, 21, 30, 37, 37, 42, 49, 49, 51, 58, 61, 63, 65, 58, 51, 49, 51, 42, 23, 21, 37, 47, 47]"
1713644316313029850,"[44, 47, 56, 68, 68, 65, 63, 51, 49, 63, 70, 65, 65, 72, 87, 87, 82, 91, 96, 96, 101, 105, 101, 101, 108, 115, 110, 96, 87, 82, 79, 87, 89, 96, 103, 101, 96, 91, 96, 254, 698, 1178, 1126, 348, -261, -25, 197, 0, -30, 84, 56, 37, 82, 77, 58, 68, 75, 84, 98, 98, 87, 82, 103, 129, 143, 155, 183, 221, 258, 291, 317, 326, 333]"
1713644316874189751,"[336, 322, 272, 190, 96, 28, -7, -32, -54, -68, -75, -72, -58, -51, -56, -63, -65, -51, -35, -42, -44, -37, -35, -32, -30, -28, -28, -39, -49, -39, -25, -21, -16, -18, -25, -16, -7, -2, 4, 4, -2, 7, 21, 25, 28, 25, 14, 14, 28, 35, 35, 35, 25, 7, 4, 18, 25, 18, 23, 35, 42, 47, 56, 51, 49, 63, 72, 72, 72, 75, 75, 77, 87]"
1713644317435319130,"[91, 87, 82, 84, 84, 79, 70, 56, 47, 56, 65, 68, 87, 103, 101, 89, 79, 75, 70, 68, 70, 72, 79, 84, 87, 89, 75, 65, 209, 644, 1152, 1166, 406, -261, -63, 183, -7, -56, 51, 23, -2, 44, 51, 39, 51, 42, 28, 47, 63, 65, 79, 96, 112, 136, 155, 176, 211, 239, 270, 303, 319, 331, 333, 310, 263, 199, 124, 70, 23, -30, -72, -89, -91]"
1713644317996458683,"[-84, -77, -79, -87, -87, -89, -91, -87, -82, -79, -94, -105, -87, -68, -68, -63, -51, -44, -35, -28, -23, -21, -18, -9, 2, 4, 2, 11, 11, 2, 11, 23, 21, 23, 28, 35, 42, 44, 21, 0, 9, 25, 30, 32, 37, 39, 42, 49, 61, 65, 63, 63, 68, 75, 84, 84, 82, 82, 87, 89, 82, 70, 70, 75, 75, 82, 91, 91, 89, 87, 91, 96, 103]"
1713644318557608406,"[103, 98, 98, 101, 108, 112, 110, 89, 72, 82, 91, 91, 91, 84, 84, 98, 105, 115, 134, 127, 101, 91, 91, 82, 79, 77, 75, 87, 91, 91, 89, 56, 28, 112, 463, 992, 1225, 677, -152, -199, 150, 51, -84, 18, 37, -4, 35, 61, 42, 44, 63, 61, 56, 77, 84, 79, 101, 124, 141, 159, 176, 195, 225, 263, 289, 305, 308, 303, 296, 270, 211, 134, 51]"
1713644319118758133,"[-14, -56, -82, -96, -103, -112, -112, -101, -91, -82, -79, -87, -82, -63, -54, -49, -51, -63, -58, -39, -28, -23, -16, -28, -51, -49, -30, -21, -21, -18, -11, 0, 11, 14, 11, 18, 25, 32, 42, 47, 44, 42, 39, 28, 32, 47, 47, 42, 51, 58, 63, 63, 68, 72, 77, 77, 82, 84, 84, 87, 87, 94, 98, 96, 96, 101, 98, 101, 108, 103, 98, 103, 110]"
1713644319679897682,"[112, 103, 91, 94, 103, 103, 103, 96, 77, 75, 84, 87, 89, 94, 91, 89, 87, 84, 84, 75, 58, 63, 65, 61, 68, 72, 72, 79, 84, 79, 65, 98, 357, 863, 1211, 870, 11, -289, 72, 119, -72, -11, 58, 7, 14, 61, 56, 54, 72, 77, 75, 94, 108, 115, 127, 141, 152, 169, 185, 199, 228, 261, 286, 310, 315, 303, 272, 237, 195, 129, 58, -4, -56]"
1713644320241027061,"[-84, -89, -94, -103, -110, -119, -122, -108, -108, -127, -124, -105, -96, -82, -61, -51, -51, -42, -23, -11, -7, 0, 4, 4, 2, -2, 4, 16, 9, 7, 23, 37, 39, 42, 39, 39, 51, 63, 63, 63, 58, 61, 75, 79, 82, 84, 75, 77, 89, 94, 96, 96, 87, 87, 101, 103, 96, 82, 70, 77, 89, 91, 94, 94, 89, 96, 105, 105, 108, 115, 124, 136, 131]"
1713644320802186962,"[112, 79, 44, 37, 54, 61, 65, 63, 51, 32, 37, 39, 119, 475, 1004, 1201, 611, -218, -230, 127, 14, -117, 7, 28, -21, 16, 39, 21, 35, 61, 68, 70, 75, 84, 101, 117, 134, 148, 164, 185, 216, 254, 286, 310, 331, 348, 348, 319, 256, 183, 115, 44, -14, -56, -87, -115, -129, -119, -108, -105, -96, -91, -89, -82, -70, -58, -63, -77, -77, -63, -49, -35, -28]"
1713644321363326515,"[-23, -16, -9, -2, 7, 9, 4, -9, -11, -2, 7, -4, -16, -7, 2, 9, 18, 21, 23, 32, 35, 37, 49, 51, 51, 56, 61, 63, 70, 70, 70, 77, 82, 84, 84, 84, 91, 94, 84, 75, 72, 75, 82, 84, 84, 87, 89, 89, 96, 101, 96, 96, 103, 103, 103, 105, 103, 105, 105, 98, 79, 65, 68, 75, 72, 79, 91, 91, 89, 112, 129, 115, 96]"
1713644321924491499,"[91, 77, 65, 68, 77, 79, 79, 79, 68, 54, 47, 54, 188, 602, 1103, 1128, 399, -263, -84, 159, -25, -68, 49, 30, 2, 39, 49, 37, 61, 75, 61, 56, 72, 84, 96, 115, 131, 141, 157, 185, 216, 246, 277, 301, 319, 333, 338, 329, 286, 218, 145, 87, 21, -47, -75, -84, -96, -98, -96, -94, -98, -108, -110, -103, -91, -77, -75, -75, -68, -54, -39, -32, -28]"
1713644322485625965,"[-25, -21, -9, 0, 7, 0, -21, -18, 0, 4, 7, 9, 9, 16, 25, 35, 42, 42, 37, 42, 49, 39, 35, 42, 39, 42, 54, 61, 63, 61, 63, 68, 75, 82, 87, 84, 77, 82, 89, 96, 96, 94, 91, 94, 91, 70, 61, 65, 65, 70, 79, 87, 84, 75, 63, 72, 87, 89, 82, 82, 87, 91, 98, 101, 98, 94, 94, 103, 110, 110, 112, 122, 136]"
1713644323046765514,"[138, 129, 119, 101, 87, 89, 96, 98, 96, 79, 70, 75, 58, 37, 157, 559, 1063, 1152, 479, -246, -129, 164, -2, -77, 47, 42, 0, 35, 51, 42, 63, 82, 79, 87, 101, 108, 119, 129, 119, 119, 148, 181, 204, 235, 263, 282, 308, 326, 331, 319, 272, 197, 124, 63, 11, -30, -65, -87, -98, -112, -108, -91, -96, -94, -77, -70, -65, -56, -49, -42, -32, -30, -21]"
1713644323607925415,"[-14, -11, -2, -9, -21, -9, 2, -2, 4, 16, 16, 11, 2, -2, 9, 16, 16, 23, 25, 25, 37, 42, 39, 44, 49, 51, 63, 65, 63, 65, 58, 37, 42, 56, 49, 42, 42, 51, 58, 61, 61, 63, 65, 72, 79, 82, 79, 75, 79, 89, 96, 96, 94, 94, 96, 103, 119, 134, 131, 110, 91, 87, 91, 94, 89, 82, 84, 79, 72, 75, 63, 58, 230]"
1713644324169059881,"[698, 1178, 1095, 268, -341, -70, 148, -49, -63, 35, -2, -14, 37, 42, 35, 44, 54, 65, 79, 91, 96, 101, 101, 94, 108, 141, 150, 155, 195, 246, 275, 286, 286, 277, 261, 218, 143, 63, 0, -65, -108, -117, -119, -122, -124, -124, -115, -101, -89, -82, -77, -79, -68, -47, -39, -35, -28, -30, -30, -28, -18, -7, -9, -9, 4, 11, 18, 23, 21, 18, 28, 37, 39]"
1713644324730214691,"[42, 42, 42, 47, 56, 61, 61, 56, 56, 63, 70, 70, 58, 39, 39, 35, 11, 2, 7, 7, 7, 18, 30, 35, 37, 37, 42, 51, 58, 61, 63, 61, 65, 72, 77, 82, 82, 82, 84, 84, 89, 91, 89, 89, 89, 94, 98, 98, 94, 82, 70, 72, 84, 87, 82, 84, 94, 112, 129, 124, 110, 98, 87, 84, 89, 89, 87, 89, 91, 94, 96, 87, 75]"
1713644325291359331,"[181, 564, 1077, 1194, 538, -209, -122, 162, -18, -136, -35, -30, -63, -25, -2, -9, 2, 23, 30, 37, 54, 65, 72, 91, 108, 122, 141, 164, 190, 223, 254, 268, 282, 298, 303, 289, 244, 171, 98, 25, -39, -89, -112, -124, -129, -127, -119, -108, -101, -96, -87, -79, -70, -56, -49, -42, -39, -35, -18, -4, -2, -2, 2, 9, 16, 25, 30, 28, 28, 32, 39, 44, 35]"
1713644325852503967,"[7, -11, -4, 11, 18, 18, 11, -4, -2, 14, 23, 23, 25, 25, 30, 42, 56, 54, 47, 49, 58, 65, 72, 72, 65, 65, 75, 84, 87, 89, 82, 70, 65, 72, 79, 77, 72, 72, 82, 89, 96, 94, 87, 91, 98, 101, 103, 103, 96, 94, 105, 115, 112, 108, 105, 108, 112, 115, 117, 112, 108, 108, 110, 108, 94, 87, 79, 56, 54, 84, 105, 96, 77]"
1713644326413633346,"[70, 70, 65, 68, 65, 65, 72, 82, 84, 77, 51, 35, 181, 618, 1107, 1121, 388, -291, -108, 166, -7, -58, 44, 9, -21, 32, 49, 35, 42, 54, 68, 79, 89, 87, 84, 96, 115, 131, 143, 152, 169, 195, 223, 254, 277, 284, 279, 268, 242, 190, 117, 49, -2, -42, -75, -96, -103, -105, -112, -131, -136, -115, -96, -94, -84, -72, -58, -44, -35, -35, -28, -16, -4]"
1713644326974793247,"[7, 7, 9, 18, 23, 28, 32, 16, 0, 11, 23, 21, 32, 37, 23, 23, 37, 39, 39, 39, 47, 56, 51, 54, 65, 63, 63, 75, 72, 77, 89, 84, 82, 84, 84, 89, 96, 94, 96, 98, 94, 101, 105, 96, 96, 96, 79, 79, 87, 87, 89, 79, 68, 84, 94, 75, 63, 65, 58, 56, 61, 68, 75, 72, 70, 77, 72, 84, 286, 773, 1204, 1011, 164]"
1713644327535922626,"[-312, 11, 169, -42, -32, 56, 4, 2, 54, 42, 21, 32, 49, 56, 65, 77, 84, 87, 94, 108, 127, 145, 162, 183, 214, 246, 268, 270, 277, 284, 263, 211, 138, 63, -4, -49, -84, -112, -127, -131, -129, -117, -101, -96, -112, -134, -122, -98, -91, -75, -58, -63, -56, -37, -23, -14, -4, -7, -2, 11, 21, 25, 28, 21, 18, 32, 42, 44, 42, 30, 28, 42, 51]"
1713644328097082523,"[54, 54, 49, 51, 63, 72, 72, 70, 61, 63, 77, 82, 79, 65, 44, 47, 65, 70, 70, 65, 63, 68, 75, 84, 87, 79, 75, 75, 68, 65, 72, 72, 65, 72, 82, 84, 70, 54, 65, 91, 98, 91, 79, 63, 54, 61, 72, 75, 75, 72, 70, 77, 77, 68, 148, 505, 1044, 1241, 642, -178, -188, 141, 25, -87, 28, 42, -9, 21, 44, 37, 51, 68, 70]"
1713644328658227163,"[72, 82, 96, 108, 119, 129, 141, 157, 181, 209, 230, 242, 270, 296, 312, 324, 312, 275, 209, 119, 39, -4, -39, -79, -101, -110, -117, -124, -124, -129, -145, -152, -129, -112, -112, -105, -91, -84, -72, -61, -56, -47, -37, -35, -25, -18, -11, -9, -4, -2, -2, -11, -18, -9, 2, 2, 7, 16, 16, 18, 30, 35, 35, 37, 42, 49, 54, 54, 56, 58, 61, 68, 70]"
1713644329219371799,"[70, 75, 75, 72, 79, 84, 77, 72, 61, 49, 47, 42, 44, 49, 49, 54, 63, 68, 65, 68, 68, 70, 68, 47, 32, 42, 47, 51, 63, 65, 63, 65, 68, 72, 77, 82, 82, 79, 82, 91, 96, 91, 89, 94, 103, 98, 87, 77, 70, 63, 70, 79, 82, 82, 79, 77, 79, 75, 127, 428, 945, 1251, 823, -39, -235, 127, 89, -87, 9, 65, 11, 28, 56]"
1713644329780526613,"[39, 35, 49, 61, 61, 47, 44, 65, 82, 96, 112, 124, 145, 176, 202, 216, 228, 251, 279, 293, 291, 272, 223, 145, 77, 35, -2, -28, -47, -65, -68, -63, -68, -79, -89, -89, -87, -82, -75, -79, -82, -79, -68, -54, -44, -35, -32, -35, -28, -14, -7, 0, -2, -2, 7, 16, 25, 30, 21, 16, 30, 44, 47, 49, 44, 25, 23, 44, 49, 42, 44, 49, 54]"
1713644330341661075,"[63, 72, 72, 70, 68, 72, 75, 54, 23, 18, 25, 32, 42, 51, 51, 51, 61, 68, 68, 72, 77, 79, 79, 82, 77, 68, 72, 79, 72, 84, 98, 94, 91, 91, 91, 103, 112, 105, 108, 131, 145, 138, 124, 110, 98, 98, 101, 103, 105, 105, 108, 110, 103, 91, 119, 366, 867, 1241, 957, 89, -298, 54, 150, -54, -7, 72, 21, 21, 63, 58, 54, 72, 65]"
1713644330902820976,"[47, 61, 79, 84, 91, 96, 91, 115, 152, 174, 197, 239, 272, 291, 298, 291, 275, 246, 192, 115, 35, -37, -89, -124, -145, -148, -143, -145, -143, -131, -122, -110, -101, -98, -91, -82, -68, -54, -49, -49, -37, -28, -21, -9, -2, 0, 4, 2, -7, 0, 9, 7, 9, 16, 21, 28, 32, 30, 30, 32, 42, 51, 47, 47, 49, 30, 21, 35, 42, 32, 32, 42, 47]"
1713644331463960529,"[51, 58, 56, 51, 61, 65, 54, 37, 32, 23, 18, 35, 44, 42, 37, 39, 54, 63, 63, 70, 84, 94, 98, 94, 82, 68, 61, 63, 70, 72, 75, 75, 70, 70, 72, 65, 155, 538, 1079, 1255, 632, -209, -202, 145, 14, -105, 18, 30, -11, 23, 32, 21, 44, 63, 63, 68, 65, 51, 51, 75, 94, 98, 110, 141, 176, 211, 244, 270, 289, 305, 308, 284, 239]"
1713644332025110252,"[166, 77, 16, -23, -61, -98, -129, -145, -145, -141, -134, -136, -152, -152, -131, -119, -112, -105, -98, -91, -79, -65, -56, -47, -42, -39, -28, -14, -9, -11, -21, -21, -7, 2, 4, 4, 4, 9, 16, 25, 32, 32, 32, 35, 44, 49, 49, 54, 54, 44, 30, 18, 28, 35, 32, 35, 42, 51, 54, 49, 56, 51, 37, 42, 54, 49, 51, 61, 65, 68, 70, 68, 72]"
1713644332586259979,"[77, 79, 84, 84, 84, 87, 87, 89, 89, 70, 61, 72, 70, 70, 79, 79, 77, 84, 84, 84, 84, 75, 77, 84, 82, 82, 89, 87, 89, 96, 101, 117, 131, 122, 108, 96, 89, 87, 87, 87, 89, 91, 87, 68, 47, 39, 44, 164, 580, 1121, 1220, 510, -254, -157, 127, -32, -108, 7, 0, -35, 7, 21, 9, 28, 54, 56, 58, 70, 79, 89, 110, 127, 136]"
1713644333147399528,"[152, 174, 204, 239, 256, 263, 272, 277, 284, 277, 228, 157, 77, 7, -35, -63, -96, -112, -117, -115, -103, -89, -84, -82, -75, -63, -49, -39, -32, -32, -28, -16, 0, 9, 14, 16, 7, -7, 0, 18, 18, 14, 16, 16, 9, 11, 21, 18, 18, 32, 44, 49, 51, 47, 51, 61, 68, 72, 75, 68, 70, 82, 87, 89, 89, 87, 84, 91, 96, 101, 103, 96, 98]"
1713644333708528907,"[108, 112, 108, 87, 72, 82, 94, 101, 101, 82, 61, 68, 89, 94, 87, 87, 87, 94, 101, 103, 103, 103, 105, 108, 112, 115, 115, 105, 96, 87, 72, 72, 82, 79, 68, 58, 68, 82, 79, 75, 77, 84, 84, 89, 94, 84, 84, 98, 105, 108, 108, 105, 115, 134, 143, 134, 112, 94, 96, 105, 108, 110, 112, 108, 108, 112, 96, 94, 301, 799, 1237, 1055, 209]"
1713644334269688808,"[-303, -7, 138, -72, -49, 42, -32, -68, -32, -42, -47, -18, -7, -7, 7, 21, 25, 42, 56, 65, 91, 103, 103, 129, 164, 190, 211, 235, 263, 272, 251, 218, 171, 98, 35, -7, -47, -77, -84, -84, -82, -77, -70, -58, -49, -44, -35, -28, -25, -9, 2, 0, 4, 14, 21, 32, 39, 32, 21, 23, 28, 32, 39, 44, 44, 42, 44, 54, 58, 58, 63, 65, 65]"
1713644334830828361,"[70, 75, 72, 72, 72, 77, 84, 84, 75, 68, 54, 51, 65, 65, 47, 23, 11, 14, 14, 18, 23, 23, 28, 39, 47, 49, 47, 47, 51, 58, 65, 65, 63, 65, 70, 75, 84, 103, 115, 105, 94, 87, 79, 79, 77, 75, 77, 84, 84, 72, 54, 44, 68, 282, 776, 1225, 1041, 164, -350, -28, 122, -105, -98, -9, -58, -63, -14, -14, -23, -4, 11, 18, 32]"
1713644335391978084,"[44, 49, 56, 77, 98, 117, 138, 155, 162, 190, 232, 270, 289, 279, 275, 270, 235, 171, 101, 30, -18, -39, -54, -68, -75, -77, -65, -51, -42, -30, -25, -30, -21, -4, 4, 11, 11, 9, 18, 25, 21, 14, 16, 21, 25, 35, 42, 44, 39, 35, 42, 51, 54, 58, 54, 49, 61, 68, 70, 70, 65, 63, 70, 77, 79, 77, 75, 75, 79, 87, 89, 87, 68]"
1713644335953107463,"[30, 21, 39, 47, 42, 42, 47, 49, 58, 61, 42, 30, 37, 47, 51, 56, 56, 54, 56, 68, 72, 70, 70, 72, 75, 79, 84, 87, 82, 84, 82, 68, 68, 72, 70, 72, 82, 84, 84, 91, 108, 122, 119, 108, 96, 84, 77, 82, 87, 87, 89, 89, 91, 91, 72, 84, 298, 783, 1239, 1086, 232, -282, 14, 148, -68, -58, 7, -58, -58, -11, -18, -28, -16]"
1713644336514262277,"[-11, -18, -14, 4, 14, 18, 35, 39, 39, 70, 103, 124, 159, 195, 223, 251, 272, 275, 261, 228, 171, 112, 44, -25, -61, -75, -89, -84, -77, -75, -70, -61, -49, -37, -30, -28, -21, -9, 0, 7, 16, 18, 21, 28, 35, 42, 44, 44, 44, 49, 54, 58, 61, 58, 47, 44, 54, 58, 49, 21, 14, 28, 37, 39, 47, 47, 42, 47, 56, 61, 61, 58, 58]"
1713644337075396739,"[63, 70, 75, 72, 54, 32, 42, 58, 58, 61, 58, 56, 61, 58, 51, 54, 54, 49, 58, 70, 72, 70, 68, 70, 77, 84, 89, 89, 82, 84, 94, 96, 98, 101, 96, 94, 108, 129, 145, 138, 110, 96, 98, 98, 98, 89, 70, 72, 89, 91, 84, 56, 56, 293, 811, 1234, 999, 115, -326, 18, 134, -72, -32, 49, -9, -7, 47, 44, 42, 61, 58, 63, 84]"
1713644337636531209,"[98, 101, 105, 115, 119, 131, 155, 174, 181, 204, 246, 282, 308, 315, 301, 275, 239, 178, 108, 35, -28, -72, -101, -112, -112, -115, -119, -108, -91, -84, -77, -72, -68, -63, -51, -39, -42, -54, -44, -28, -25, -18, -9, -16, -30, -28, -16, -4, 2, 2, 4, 4, 7, 16, 28, 32, 37, 39, 35, 42, 54, 54, 51, 54, 61, 68, 72, 70, 61, 51, 58, 70, 68]"
1713644338197686019,"[68, 75, 75, 77, 82, 84, 84, 87, 89, 94, 91, 70, 58, 79, 101, 112, 112, 91, 77, 72, 70, 79, 79, 72, 77, 84, 87, 82, 58, 58, 268, 773, 1232, 1060, 188, -352, -54, 112, -94, -77, 23, -21, -25, 21, 21, 18, 42, 51, 54, 72, 84, 87, 98, 117, 134, 152, 174, 197, 223, 251, 277, 308, 331, 336, 331, 315, 265, 195, 119, 47, 0, -32, -61]"
1713644338758830659,"[-79, -82, -79, -84, -87, -82, -87, -98, -110, -110, -98, -84, -79, -77, -72, -58, -47, -39, -42, -54, -54, -37, -25, -18, -16, -18, -18, -7, -9, -28, -30, -21, -21, -14, 0, 9, 9, 7, 11, 21, 32, 39, 39, 35, 37, 47, 58, 65, 63, 54, 49, 47, 51, 58, 61, 56, 58, 70, 75, 77, 79, 77, 77, 87, 94, 96, 94, 87, 89, 98, 105, 110, 103]"
1713644339319975295,"[94, 112, 143, 145, 134, 115, 94, 89, 98, 94, 72, 49, 39, 51, 61, 61, 51, 63, 291, 816, 1270, 1020, 84, -364, -7, 94, -112, -58, 30, -30, -30, 23, 25, 25, 47, 51, 49, 65, 87, 98, 101, 103, 103, 122, 152, 178, 204, 235, 265, 298, 324, 338, 336, 308, 261, 202, 138, 77, 25, -9, -30, -37, -32, -30, -32, -30, -23, -14, -4, 2, 2, 7, 14]"
1713644339881104674,"[11, -2, -14, -11, -4, -2, -2, -7, -28, -47, -51, -49, -42, -51, -79, -82, -61, -56, -54, -42, -39, -37, -30, -23, -16, -7, -7, -4, 9, 14, 16, 28, 30, 21, 18, 30, 37, 39, 42, 49, 56, 58, 61, 63, 68, 75, 77, 77, 84, 84, 84, 89, 94, 91, 96, 98, 98, 101, 105, 105, 105, 108, 108, 112, 110, 89, 82, 91, 94, 96, 101, 98, 98]"
1713644340442264575,"[101, 101, 108, 108, 105, 91, 68, 44, 42, 51, 56, 54, 61, 68, 77, 79, 77, 91, 115, 122, 112, 101, 89, 77, 70, 70, 77, 79, 77, 77, 84, 89, 79, 72, 202, 623, 1152, 1225, 496, -235, -94, 174, -2, -54, 63, 42, 2, 42, 61, 56, 70, 84, 79, 84, 101, 105, 101, 108, 119, 131, 157, 190, 216, 237, 261, 291, 322, 341, 345, 338, 301, 237, 150]"
1713644341003393954,"[61, 9, -32, -98, -136, -131, -129, -134, -134, -134, -124, -105, -91, -82, -77, -87, -84, -61, -49, -39, -32, -35, -25, -9, -2, 2, 4, 4, 14, 23, 28, 30, 30, 30, 39, 49, 54, 58, 54, 49, 61, 72, 72, 82, 82, 72, 70, 68, 65, 68, 68, 70, 79, 87, 84, 87, 89, 91, 96, 101, 101, 105, 101, 98, 96, 82, 70, 72, 75, 77, 82, 91, 96]"
1713644341564553851,"[89, 87, 91, 98, 105, 105, 94, 82, 87, 91, 96, 98, 82, 68, 75, 82, 87, 91, 89, 89, 94, 94, 98, 103, 105, 101, 101, 112, 119, 110, 110, 127, 141, 148, 141, 119, 103, 98, 87, 79, 89, 89, 84, 91, 96, 91, 82, 178, 557, 1072, 1220, 590, -221, -195, 143, 0, -129, -28, -47, -103, -56, -35, -56, -30, -7, -11, 4, 25, 28, 35, 47, 61, 82]"
1713644342125683230,"[103, 124, 152, 188, 223, 261, 286, 303, 312, 296, 254, 211, 155, 82, 23, -16, -47, -65, -75, -75, -70, -65, -56, -44, -37, -32, -21, -16, -16, -16, -16, -11, -4, 2, 14, 23, 25, 30, 30, 35, 47, 54, 51, 49, 49, 51, 58, 63, 65, 61, 47, 35, 39, 54, 56, 51, 54, 61, 63, 70, 68, 51, 42, 51, 63, 63, 65, 65, 65, 70, 75, 82, 87]"
1713644342686843127,"[82, 79, 84, 91, 94, 87, 68, 56, 68, 75, 75, 77, 72, 70, 82, 87, 91, 91, 87, 82, 79, 84, 108, 117, 91, 75, 75, 72, 75, 77, 68, 68, 82, 87, 87, 82, 56, 129, 505, 1058, 1241, 611, -235, -254, 63, -68, -178, -63, -61, -108, -58, -35, -58, -61, -42, -28, -14, 2, 18, 25, 32, 56, 84, 105, 127, 150, 178, 216, 258, 289, 308, 312, 303]"
1713644343247997941,"[284, 242, 176, 105, 42, -4, -32, -44, -51, -68, -87, -91, -89, -75, -58, -56, -54, -44, -32, -23, -14, -4, -2, 0, 11, 25, 30, 28, 32, 37, 42, 49, 54, 51, 49, 51, 37, 16, 18, 35, 35, 30, 37, 35, 23, 28, 35, 35, 42, 51, 51, 51, 58, 61, 65, 72, 70, 72, 75, 77, 82, 87, 84, 84, 89, 91, 91, 94, 98, 96, 96, 98, 103]"
1713644343809132403,"[103, 96, 87, 75, 75, 84, 77, 56, 56, 68, 65, 68, 75, 75, 77, 82, 79, 82, 91, 87, 89, 96, 96, 98, 96, 101, 124, 141, 117, 77, 49, 47, 54, 54, 42, 32, 35, 44, 51, 54, 42, 44, 228, 698, 1175, 1081, 265, -301, -37, 145, -49, -51, 42, -7, -30, 18, 25, 14, 21, 16, 11, 16, 28, 35, 44, 58, 65, 70, 94, 124, 145, 169, 202]"
1713644344370292304,"[242, 275, 286, 282, 258, 221, 176, 122, 56, -4, -47, -70, -72, -68, -75, -77, -68, -58, -47, -32, -23, -28, -47, -49, -30, -25, -32, -30, -23, -16, -4, 11, 18, 14, 18, 28, 32, 39, 39, 32, 35, 51, 58, 56, 58, 56, 56, 70, 77, 77, 77, 70, 70, 82, 91, 96, 94, 82, 70, 79, 91, 91, 84, 75, 84, 98, 96, 98, 98, 89, 94, 103, 105]"
1713644344931431857,"[110, 105, 94, 96, 105, 112, 115, 103, 96, 105, 112, 108, 105, 87, 58, 44, 32, 25, 32, 32, 32, 42, 49, 65, 84, 91, 87, 77, 70, 70, 65, 63, 63, 70, 77, 84, 87, 82, 75, 87, 265, 731, 1192, 1084, 270, -296, -18, 183, -30, -51, 51, 21, 7, 51, 51, 42, 65, 79, 79, 89, 98, 105, 117, 131, 148, 162, 169, 178, 204, 239, 275, 291, 301]"
1713644345492581580,"[308, 303, 286, 258, 197, 119, 49, -21, -101, -155, -171, -181, -178, -169, -157, -143, -136, -127, -108, -98, -89, -77, -70, -58, -44, -37, -30, -18, -11, -4, 2, 9, 14, 18, 18, 28, 32, 30, 37, 37, 30, 35, 42, 44, 47, 49, 51, 58, 61, 58, 63, 70, 70, 75, 79, 77, 77, 82, 82, 89, 94, 89, 89, 91, 94, 98, 101, 98, 96, 96, 98, 94, 79]"
1713644346053741477,"[70, 65, 47, 47, 65, 65, 58, 49, 32, 35, 56, 70, 84, 87, 75, 65, 61, 56, 56, 58, 65, 68, 72, 77, 75, 68, 58, 164, 555, 1084, 1215, 550, -237, -169, 159, 18, -84, 28, 35, -2, 37, 58, 39, 49, 70, 75, 87, 98, 98, 105, 122, 138, 155, 171, 188, 206, 230, 256, 286, 312, 319, 315, 296, 249, 183, 115, 39, -39, -98, -115, -122, -136, -145]"
1713644346614870856,"[-134, -117, -105, -96, -91, -89, -77, -61, -51, -44, -35, -32, -25, -9, 2, 7, -4, -18, -11, 9, 11, 9, 4, 2, 16, 25, 28, 35, 37, 32, 42, 54, 58, 61, 58, 56, 63, 70, 79, 82, 75, 75, 84, 89, 89, 94, 91, 87, 94, 98, 101, 105, 98, 89, 79, 75, 82, 84, 79, 75, 58, 42, 49, 61, 58, 54, 65, 72, 75, 75, 72, 75, 82]"
1713644347176030753,"[89, 91, 91, 89, 89, 94, 101, 91, 72, 70, 79, 82, 82, 70, 61, 75, 98, 108, 105, 94, 79, 70, 72, 77, 82, 82, 82, 84, 84, 87, 84, 94, 296, 780, 1206, 1013, 178, -277, 35, 155, -49, -14, 75, 21, 9, 44, 32, 32, 58, 61, 65, 82, 72, 56, 63, 84, 101, 117, 138, 164, 188, 204, 232, 265, 286, 296, 291, 268, 235, 178, 98, 35, -11]"
1713644347737190654,"[-56, -79, -91, -108, -122, -122, -108, -94, -89, -79, -77, -84, -84, -63, -51, -49, -37, -30, -25, -11, -2, 0, 4, 9, 21, 28, 30, 35, 35, 35, 42, 54, 58, 51, 56, 56, 44, 44, 49, 49, 49, 51, 58, 68, 65, 54, 42, 42, 54, 58, 61, 63, 61, 65, 75, 82, 84, 79, 82, 87, 91, 96, 96, 94, 96, 101, 108, 105, 89, 70, 75, 91, 96]"
1713644348298330207,"[96, 98, 91, 89, 101, 105, 108, 108, 84, 63, 79, 98, 96, 91, 87, 96, 119, 136, 136, 122, 96, 87, 96, 103, 101, 96, 89, 77, 75, 87, 77, 101, 364, 877, 1227, 881, 18, -286, 58, 89, -91, -11, 49, -14, -2, 44, 37, 42, 65, 70, 68, 79, 98, 110, 115, 122, 134, 159, 178, 178, 183, 214, 246, 275, 291, 296, 291, 263, 216, 162, 96, 28, -25]"
1713644348859479930,"[-72, -101, -108, -103, -103, -103, -101, -94, -84, -75, -68, -75, -84, -75, -54, -44, -35, -28, -30, -37, -25, -9, -11, -11, -7, -2, 7, 16, 16, 11, -2, -21, -16, 2, 4, 2, 11, 16, 23, 35, 39, 35, 42, 47, 51, 58, 56, 56, 61, 68, 61, 47, 49, 56, 56, 63, 70, 75, 72, 72, 77, 77, 82, 87, 87, 87, 94, 94, 94, 101, 117, 131, 131]"
1713644349420629657,"[115, 98, 89, 79, 84, 96, 89, 87, 94, 84, 75, 72, 79, 254, 712, 1164, 1048, 230, -333, -49, 143, -68, -75, 11, -42, -49, 4, 2, 2, 28, 32, 35, 54, 65, 77, 91, 101, 112, 129, 155, 178, 195, 211, 244, 279, 301, 308, 303, 291, 258, 190, 110, 42, -16, -75, -110, -117, -117, -117, -112, -108, -108, -98, -87, -75, -65, -63, -61, -49, -35, -25, -21, -16]"
1713644349981769206,"[-18, -21, -9, 2, 2, -7, -25, -25, -7, 4, 4, 0, 0, 11, 21, 21, 2, -18, -9, 4, 14, 21, 23, 21, 25, 35, 44, 51, 54, 49, 51, 61, 54, 47, 51, 49, 49, 58, 70, 75, 72, 65, 72, 84, 87, 89, 91, 84, 87, 98, 103, 103, 103, 98, 98, 105, 110, 112, 108, 98, 103, 112, 112, 115, 110, 94, 91, 110, 129, 141, 136, 117, 105]"
1713644350542929107,"[101, 98, 98, 94, 84, 89, 98, 105, 98, 63, 37, 164, 571, 1070, 1140, 442, -289, -159, 138, -21, -96, 18, 2, -42, -7, 11, 2, 14, 30, 37, 51, 68, 72, 77, 91, 108, 129, 150, 166, 185, 216, 249, 284, 310, 322, 324, 322, 301, 254, 190, 112, 44, -4, -32, -49, -72, -96, -103, -103, -108, -101, -91, -87, -82, -79, -70, -56, -54, -51, -44, -35, -32, -21]"
1713644351104063573,"[-16, -35, -51, -39, -23, -28, -42, -44, -35, -28, -21, -14, -11, -7, -11, -23, -16, 2, 2, 2, 14, 16, 21, 30, 32, 35, 42, 42, 47, 51, 51, 56, 63, 68, 68, 70, 72, 75, 79, 77, 79, 84, 82, 89, 94, 87, 77, 68, 68, 75, 77, 75, 77, 77, 77, 84, 87, 79, 79, 87, 89, 91, 96, 91, 89, 91, 79, 58, 54, 65, 63, 63, 84]"
1713644351665218383,"[105, 110, 101, 84, 72, 61, 49, 51, 49, 32, 23, 35, 49, 49, 32, 58, 312, 813, 1171, 856, 4, -303, 56, 103, -87, -23, 35, -16, 2, 42, 35, 37, 54, 54, 63, 82, 89, 87, 79, 82, 108, 129, 145, 171, 192, 218, 258, 286, 305, 317, 308, 277, 244, 197, 131, 61, -9, -58, -94, -143, -166, -150, -148, -150, -129, -112, -108, -105, -103, -103, -105, -94, -72]"
1713644352226378280,"[-70, -70, -56, -42, -30, -23, -23, -28, -23, -4, 4, 0, -14, -30, -18, -2, 2, 9, 7, 4, 14, 21, 25, 32, 37, 30, 32, 44, 39, 25, 28, 32, 35, 42, 54, 54, 47, 51, 63, 70, 70, 65, 65, 68, 70, 75, 84, 89, 82, 79, 84, 68, 47, 51, 51, 44, 54, 65, 68, 65, 58, 49, 49, 56, 58, 63, 63, 63, 77, 108, 117, 98, 82]"
1713644352787528007,"[72, 68, 75, 77, 72, 72, 75, 77, 82, 77, 54, 136, 500, 997, 1150, 564, -221, -214, 138, 30, -101, 4, 21, -23, 9, 37, 32, 42, 54, 58, 68, 70, 68, 75, 94, 105, 110, 119, 136, 152, 174, 209, 239, 251, 246, 242, 244, 230, 178, 112, 44, -23, -82, -117, -131, -136, -141, -138, -122, -110, -105, -96, -84, -75, -65, -56, -51, -39, -28, -25, -9, 4, 7]"
1713644353348667556,"[11, 21, 18, 25, 35, 32, 23, 11, 9, 21, 21, 9, 4, 9, 18, 28, 30, 32, 35, 39, 44, 54, 54, 51, 56, 61, 63, 68, 75, 77, 72, 72, 82, 89, 91, 84, 68, 56, 63, 75, 72, 72, 75, 65, 63, 75, 75, 79, 103, 115, 110, 98, 89, 72, 68, 77, 82, 84, 89, 82, 77, 89, 84, 101, 322, 816, 1227, 994, 131, -301, 39, 148, -65]"
1713644353909827457,"[-21, 68, 4, -16, 9, 0, 4, 32, 42, 42, 49, 63, 77, 94, 108, 117, 127, 145, 181, 216, 244, 272, 293, 317, 343, 348, 329, 282, 199, 98, 21, -25, -58, -91, -119, -141, -138, -129, -134, -141, -134, -119, -103, -96, -89, -84, -79, -68, -58, -44, -32, -32, -32, -21, -7, -2, -4, -4, 4, 14, 18, 25, 28, 23, 25, 32, 28, 23, 25, 25, 28, 35, 44]"
1713644354470956836,"[51, 51, 44, 44, 58, 70, 61, 44, 32, 42, 56, 65, 65, 61, 61, 61, 63, 58, 58, 84, 103, 65, 32, 56, 68, 51, 44, 54, 58, 63, 65, 65, 68, 72, 79, 82, 84, 84, 89, 89, 89, 96, 96, 94, 96, 101, 103, 105, 112, 131, 141, 129, 119, 115, 98, 91, 91, 79, 72, 82, 82, 77, 82, 70, 79, 293, 776, 1201, 1020, 183, -291, 11, 138]"
1713644355032116733,"[-56, -28, 58, 11, 2, 42, 44, 42, 56, 61, 49, 44, 61, 75, 58, 47, 58, 77, 98, 129, 159, 190, 223, 256, 277, 291, 296, 284, 256, 211, 148, 84, 28, -11, -49, -70, -70, -72, -77, -72, -75, -79, -79, -87, -82, -70, -65, -61, -65, -72, -63, -51, -51, -51, -37, -21, -21, -21, -11, -2, 2, 7, 4, 4, 11, 23, 28, 28, 25, 32, 44, 47, 44]"
1713644355593261373,"[56, 58, 51, 56, 65, 72, 65, 37, 21, 32, 44, 49, 51, 37, 23, 35, 49, 51, 54, 54, 51, 61, 70, 75, 72, 68, 68, 77, 89, 94, 91, 84, 79, 91, 101, 101, 96, 91, 94, 87, 77, 82, 87, 79, 82, 91, 96, 101, 103, 94, 94, 117, 134, 141, 129, 105, 94, 91, 94, 101, 94, 84, 91, 103, 103, 98, 87, 157, 498, 1020, 1241, 700, -162]"
1713644356154406009,"[-263, 103, 39, -105, 0, 18, -37, 9, 49, 25, 23, 28, 25, 44, 63, 75, 84, 89, 98, 122, 150, 171, 192, 221, 249, 282, 317, 338, 345, 338, 301, 244, 188, 122, 54, -4, -58, -87, -98, -110, -117, -112, -103, -87, -77, -77, -72, -63, -54, -42, -30, -30, -23, -11, -7, -2, 11, 14, 9, 14, 23, 28, 18, 0, 0, -9, -30, -18, 0, -4, 2, 16, 14]"
1713644356715565906,"[16, 28, 30, 32, 39, 42, 42, 44, 37, 25, 32, 42, 47, 51, 51, 58, 63, 58, 65, 75, 68, 58, 58, 56, 61, 63, 63, 72, 75, 72, 82, 79, 79, 103, 119, 119, 110, 91, 77, 77, 82, 77, 75, 72, 72, 84, 87, 70, 68, 197, 611, 1114, 1164, 430, -308, -162, 150, -16, -108, -14, -28, -54, -9, 11, 4, 14, 25, 32, 51, 70, 75, 79, 89]"
1713644357276695285,"[103, 127, 148, 169, 190, 204, 223, 265, 303, 312, 303, 282, 242, 176, 103, 28, -44, -103, -138, -145, -145, -150, -150, -143, -134, -122, -108, -98, -96, -94, -79, -65, -51, -47, -47, -39, -28, -16, -9, 0, 0, -2, 7, 14, 7, -4, -7, -2, 7, 14, 9, -14, -25, -7, 4, 9, 21, 23, 16, 21, 32, 44, 49, 47, 42, 51, 63, 65, 68, 68, 63, 68, 77]"
1713644357837855186,"[82, 87, 87, 72, 63, 72, 84, 77, 58, 44, 51, 70, 72, 72, 72, 70, 75, 84, 103, 127, 122, 101, 94, 89, 82, 82, 77, 72, 77, 84, 89, 91, 82, 61, 159, 543, 1065, 1220, 583, -228, -185, 152, 21, -94, -2, -9, -39, 7, 25, 11, 23, 39, 44, 58, 72, 79, 87, 96, 115, 136, 155, 171, 192, 223, 254, 286, 322, 333, 324, 312, 298, 254, 183]"
1713644358399015083,"[117, 63, 11, -18, -28, -39, -47, -47, -42, -35, -32, -54, -70, -56, -44, -49, -49, -49, -56, -63, -61, -47, -39, -42, -37, -30, -37, -49, -42, -32, -32, -28, -23, -18, -7, -7, -23, -39, -35, -18, -14, -14, -2, 7, 7, 16, 21, 21, 30, 39, 39, 42, 47, 47, 54, 63, 63, 65, 68, 58, 58, 68, 65, 70, 72, 70, 79, 87, 84, 82, 87, 89, 94]"
1713644358960144462,"[96, 94, 96, 98, 98, 101, 103, 101, 91, 72, 70, 82, 87, 82, 79, 82, 89, 84, 75, 82, 103, 105, 96, 87, 77, 68, 68, 70, 65, 47, 39, 49, 49, 39, 39, 127, 475, 1001, 1215, 660, -152, -192, 138, 32, -96, 16, 37, -7, 23, 42, 18, 25, 54, 65, 68, 72, 79, 94, 110, 127, 143, 150, 164, 197, 230, 258, 289, 310, 322, 336, 343, 324, 275]"
1713644359521304359,"[202, 136, 87, 49, 16, -18, -56, -65, -54, -63, -63, -51, -58, -63, -54, -42, -32, -35, -47, -44, -42, -65, -87, -79, -72, -70, -56, -47, -39, -37, -42, -37, -25, -14, -9, -14, -18, -7, 14, 18, 9, 4, 7, 14, 21, 30, 39, 32, 28, 39, 51, 56, 58, 51, 51, 65, 75, 75, 72, 70, 77, 89, 89, 94, 94, 89, 87, 94, 101, 101, 96, 94, 91]"
1713644360082433738,"[82, 77, 87, 89, 82, 87, 91, 94, 89, 77, 68, 72, 75, 56, 37, 47, 58, 56, 75, 103, 105, 91, 77, 68, 68, 79, 79, 70, 77, 87, 89, 91, 84, 68, 136, 475, 1011, 1262, 733, -134, -230, 150, 84, -70, 28, 61, 14, 39, 65, 58, 63, 75, 82, 94, 108, 112, 117, 131, 143, 155, 181, 204, 221, 244, 268, 284, 315, 336, 329, 317, 303, 254, 185]"
1713644360643593635,"[108, 30, -21, -65, -103, -117, -129, -148, -141, -124, -122, -122, -124, -129, -112, -94, -89, -79, -72, -63, -47, -37, -39, -47, -51, -37, -21, -21, -18, -11, -4, 2, 9, 14, 16, 18, 21, 25, 37, 44, 39, 44, 49, 51, 61, 65, 61, 58, 63, 70, 72, 75, 77, 72, 65, 61, 58, 63, 63, 58, 65, 75, 79, 79, 77, 72, 82, 94, 94, 91, 91, 87, 75]"
1713644361204728105,"[56, 61, 70, 51, 47, 75, 89, 77, 65, 47, 42, 56, 65, 58, 44, 32, 39, 56, 54, 42, 117, 468, 1013, 1258, 696, -162, -223, 131, 42, -89, 25, 49, -4, 18, 47, 42, 56, 77, 75, 72, 89, 105, 112, 127, 138, 138, 143, 164, 195, 225, 249, 279, 308, 322, 324, 324, 298, 237, 162, 91, 25, -30, -77, -103, -124, -148, -145, -127, -127, -127, -110, -94, -84]"
1713644361765882915,"[-75, -70, -68, -56, -42, -47, -51, -47, -37, -25, -14, -9, -16, -28, -23, -9, -2, 4, 7, 7, 9, 18, 32, 35, 30, 35, 42, 47, 54, 58, 58, 58, 61, 68, 72, 77, 68, 54, 49, 56, 68, 70, 65, 68, 70, 75, 84, 89, 84, 84, 89, 91, 96, 98, 96, 98, 98, 79, 61, 65, 72, 70, 70, 77, 84, 84, 87, 89, 84, 77, 68, 68, 79]"
1713644362327042812,"[82, 77, 82, 94, 91, 91, 96, 108, 127, 124, 91, 75, 77, 68, 70, 77, 72, 77, 82, 84, 84, 79, 65, 134, 472, 999, 1265, 766, -101, -230, 129, 63, -89, 11, 47, -2, 25, 56, 42, 44, 65, 72, 77, 89, 101, 105, 117, 134, 148, 159, 169, 176, 197, 237, 256, 265, 286, 303, 303, 277, 211, 131, 51, -11, -51, -79, -108, -122, -122, -119, -110, -96, -87]"
1713644362888192539,"[-87, -82, -70, -54, -42, -37, -42, -56, -56, -37, -23, -18, -16, -14, -7, 2, 11, 18, 14, 4, 4, 16, 23, 23, 18, 23, 32, 42, 47, 51, 47, 44, 61, 63, 61, 68, 68, 65, 77, 87, 89, 87, 75, 58, 54, 65, 72, 68, 65, 70, 72, 68, 65, 70, 65, 65, 75, 77, 82, 87, 79, 84, 96, 101, 105, 103, 96, 96, 101, 105, 112, 110, 98]"
1713644363449332088,"[105, 115, 112, 119, 119, 110, 122, 148, 152, 136, 110, 87, 84, 94, 96, 87, 70, 63, 75, 84, 77, 72, 197, 618, 1128, 1166, 437, -272, -115, 171, 0, -61, 63, 44, 2, 32, 25, 4, 28, 51, 49, 51, 54, 56, 70, 84, 94, 117, 143, 171, 197, 225, 256, 279, 298, 324, 333, 315, 277, 221, 145, 65, -2, -49, -87, -112, -115, -105, -105, -108, -98, -87, -79]"
1713644364010491989,"[-70, -68, -77, -75, -63, -51, -39, -54, -70, -61, -44, -35, -25, -21, -16, -7, -4, -2, 9, 14, 16, 23, 25, 28, 35, 35, 44, 54, 39, 14, 9, 23, 28, 18, 9, 16, 30, 30, 32, 44, 47, 47, 54, 58, 63, 68, 68, 72, 75, 72, 82, 89, 87, 87, 89, 94, 98, 96, 101, 122, 134, 129, 122, 108, 91, 82, 75, 75, 84, 84, 82, 84, 89]"
1713644364571646800,"[84, 79, 216, 646, 1161, 1180, 411, -301, -119, 152, -35, -87, 39, 23, -11, 32, 39, 25, 49, 68, 65, 65, 58, 56, 65, 70, 82, 103, 117, 143, 181, 218, 249, 275, 301, 322, 333, 331, 293, 218, 131, 70, 28, -16, -61, -94, -108, -115, -117, -105, -101, -105, -101, -84, -72, -68, -68, -82, -82, -61, -44, -42, -35, -35, -35, -21, -7, 4, 2, -4, 0, 11, 18]"
1713644365132781265,"[23, 23, 18, 23, 37, 44, 44, 47, 44, 47, 56, 63, 65, 51, 16, -9, -16, -4, 4, 4, 4, 16, 25, 32, 39, 39, 37, 47, 58, 63, 68, 65, 61, 70, 77, 82, 87, 84, 77, 84, 96, 98, 98, 94, 91, 96, 105, 98, 82, 70, 75, 84, 89, 91, 91, 89, 91, 98, 103, 112, 131, 136, 124, 112, 103, 96, 96, 94, 89, 94, 101, 101, 101]"
1713644365693925905,"[98, 82, 112, 378, 893, 1262, 924, 25, -308, 54, 89, -127, -63, 14, -35, -23, 18, 11, 11, 30, 42, 54, 68, 72, 79, 96, 112, 127, 145, 162, 183, 211, 242, 277, 301, 319, 333, 338, 322, 275, 204, 143, 72, 4, -32, -54, -75, -89, -96, -101, -108, -108, -96, -87, -82, -77, -65, -56, -56, -44, -32, -28, -23, -16, -14, -7, 0, 4, 9, 11, 4, -4, -21]"
1713644366255070541,"[-39, -32, -21, -18, -9, 2, 0, 0, -9, -14, 4, 14, 9, 14, 23, 28, 37, 42, 44, 44, 47, 54, 68, 70, 65, 70, 75, 77, 84, 82, 65, 58, 65, 75, 79, 82, 79, 79, 87, 91, 96, 101, 96, 96, 96, 101, 108, 108, 101, 98, 105, 112, 115, 110, 110, 108, 110, 115, 117, 115, 112, 110, 96, 94, 112, 108, 79, 72, 77, 68, 61, 63, 63]"
1713644366816225355,"[61, 70, 79, 79, 77, 51, 28, 112, 456, 973, 1215, 696, -152, -235, 134, 58, -89, 9, 35, -9, 18, 35, 18, 25, 42, 51, 70, 84, 82, 87, 105, 122, 136, 157, 174, 188, 218, 261, 296, 319, 333, 329, 322, 312, 279, 214, 131, 51, -4, -47, -72, -84, -98, -115, -108, -89, -87, -110, -129, -117, -96, -82, -72, -65, -61, -49, -35, -25, -18, -9, -4, -7, 0]"
1713644367377359817,"[14, 23, 21, 16, 18, 28, 37, 44, 32, 14, 16, 28, 23, 21, 28, 21, 21, 37, 49, 51, 51, 56, 61, 65, 72, 75, 75, 79, 84, 87, 91, 96, 94, 94, 96, 101, 105, 110, 103, 98, 103, 112, 115, 112, 103, 94, 94, 103, 112, 108, 98, 98, 110, 112, 94, 77, 70, 70, 79, 79, 77, 82, 89, 91, 89, 82, 131, 420, 936, 1227, 778, -75, -254]"
1713644367938519718,"[122, 115, -63, 2, 37, -18, -11, 21, 18, 21, 42, 49, 44, 63, 84, 82, 96, 119, 131, 148, 166, 178, 199, 230, 261, 291, 305, 298, 291, 268, 216, 155, 87, 16, -35, -77, -108, -115, -115, -117, -112, -103, -96, -98, -119, -117, -94, -87, -82, -63, -49, -47, -39, -30, -21, -7, 0, 0, 2, 4, 14, 28, 30, 25, 23, 28, 35, 30, 23, 23, 28, 32, 39]"
1713644368499659271,"[49, 51, 47, 47, 56, 65, 70, 70, 58, 39, 42, 61, 65, 61, 61, 63, 68, 75, 82, 82, 75, 72, 82, 91, 96, 89, 77, 70, 77, 89, 91, 89, 82, 82, 91, 98, 91, 68, 49, 56, 79, 101, 112, 101, 77, 68, 68, 72, 79, 77, 70, 72, 87, 91, 84, 70, 155, 526, 1039, 1178, 559, -218, -185, 143, 23, -79, 35, 35, -16, 18, 44, 37, 51]"
1713644369060808994,"[61, 56, 70, 89, 96, 105, 110, 115, 134, 159, 181, 195, 199, 218, 258, 293, 312, 315, 298, 277, 242, 176, 98, 32, -18, -58, -82, -98, -103, -115, -150, -159, -134, -119, -110, -105, -101, -94, -84, -70, -56, -54, -51, -42, -30, -23, -18, -11, -11, -18, -21, -11, -4, -4, -2, 7, 14, 21, 23, 23, 30, 39, 42, 49, 54, 51, 51, 56, 63, 70, 70, 68, 75]"
1713644369621968891,"[79, 77, 82, 87, 87, 87, 87, 87, 75, 49, 39, 54, 56, 58, 68, 70, 72, 77, 77, 82, 87, 79, 63, 47, 47, 58, 63, 61, 68, 75, 75, 79, 82, 82, 89, 94, 89, 89, 96, 98, 94, 82, 79, 94, 112, 124, 124, 112, 96, 87, 84, 87, 96, 96, 87, 89, 96, 94, 87, 103, 305, 771, 1178, 978, 164, -265, 42, 159, -37, -4, 89, 32, 11]"
1713644370183123705,"[44, 42, 42, 63, 68, 68, 68, 65, 77, 94, 108, 119, 134, 155, 176, 183, 190, 225, 261, 279, 298, 317, 308, 270, 216, 157, 91, 28, -18, -49, -72, -89, -105, -110, -105, -115, -112, -94, -79, -75, -68, -61, -58, -44, -28, -23, -18, -16, -9, 2, 9, 18, 25, 18, 18, 30, 35, 39, 44, 42, 39, 49, 61, 58, 44, 39, 47, 51, 58, 68, 65, 63, 72]"
1713644370744258167,"[77, 79, 87, 87, 79, 84, 96, 84, 56, 39, 30, 37, 51, 58, 63, 63, 51, 61, 79, 82, 82, 82, 68, 58, 68, 79, 82, 79, 77, 84, 96, 101, 98, 98, 112, 138, 143, 122, 101, 89, 87, 96, 103, 105, 105, 101, 98, 103, 101, 138, 411, 910, 1211, 818, -28, -270, 91, 110, -68, 16, 75, 18, 32, 70, 61, 63, 87, 94, 94, 101, 108, 119, 134]"
1713644371305418068,"[131, 119, 134, 164, 188, 221, 246, 261, 282, 310, 324, 331, 315, 254, 171, 101, 39, -18, -68, -103, -124, -136, -134, -122, -119, -115, -103, -96, -87, -77, -70, -63, -51, -44, -37, -21, -14, -14, -7, 0, 7, 16, 16, 18, 23, 16, 4, 4, 14, 21, 25, 30, 32, 35, 37, 44, 47, 47, 54, 61, 56, 61, 68, 68, 75, 75, 54, 47, 61, 61, 56, 65, 70]"
1713644371866557621,"[72, 89, 105, 115, 108, 84, 65, 58, 61, 56, 37, 35, 51, 56, 56, 61, 54, 61, 249, 714, 1168, 1034, 206, -324, -23, 155, -49, -44, 56, 16, 7, 54, 51, 39, 58, 75, 72, 63, 68, 84, 94, 108, 131, 148, 162, 181, 214, 251, 286, 315, 336, 345, 348, 341, 308, 242, 159, 89, 28, -30, -63, -65, -77, -84, -68, -56, -49, -44, -47, -49, -37, -28, -18]"
1713644372427707344,"[-11, -14, -18, -14, -4, 4, 0, -30, -49, -37, -37, -44, -39, -44, -44, -32, -25, -18, -18, -21, -14, 0, 7, 11, 11, 9, 14, 21, 11, 7, 14, 14, 18, 32, 39, 42, 42, 39, 47, 56, 65, 70, 65, 61, 70, 79, 82, 84, 82, 77, 77, 65, 49, 54, 61, 54, 61, 72, 79, 75, 65, 65, 75, 89, 110, 122, 112, 96, 89, 84, 84, 89, 84]"
1713644372988867241,"[84, 94, 98, 101, 98, 79, 98, 338, 834, 1215, 912, 30, -315, 54, 115, -84, -23, 47, -14, -14, 23, 21, 18, 39, 51, 56, 72, 87, 89, 98, 115, 129, 150, 169, 188, 216, 246, 277, 308, 329, 338, 341, 329, 291, 216, 129, 65, 23, -18, -44, -54, -65, -72, -65, -58, -54, -39, -32, -30, -21, -14, -7, 0, 7, 14, 18, 21, 28, 35, 30, 35, 44, 42]"
1713644373550022055,"[42, 47, 49, 51, 51, 44, 35, 18, 4, 2, -4, -23, -30, -30, -39, -39, -30, -30, -28, -21, -16, -9, -2, -2, 0, -2, 4, 21, 23, 18, 23, 30, 32, 39, 44, 44, 49, 47, 23, 18, 35, 35, 21, 16, 25, 39, 39, 42, 44, 44, 51, 63, 70, 63, 63, 72, 79, 82, 84, 84, 96, 119, 127, 115, 98, 84, 70, 77, 89, 87, 84, 84, 82]"
1713644374111156517,"[82, 72, 58, 150, 508, 997, 1145, 540, -235, -197, 131, 4, -98, 23, 32, -11, 16, 35, 35, 54, 70, 68, 63, 75, 101, 115, 119, 134, 143, 152, 164, 171, 199, 221, 228, 258, 301, 310, 308, 291, 242, 176, 117, 63, 18, -18, -54, -65, -56, -51, -47, -44, -42, -35, -25, -16, -4, 0, -4, 0, 16, 23, 28, 30, 18, 11, 14, 23, 23, 4, -4, 7, 14]"
1713644374672316418,"[14, 7, -9, -21, -21, -14, -11, -21, -35, -39, -28, -16, -11, -7, -4, -7, -2, 9, 16, 14, 16, 21, 11, -14, -23, -14, -11, -9, 0, 9, 18, 28, 28, 30, 44, 65, 82, 84, 70, 54, 47, 54, 63, 58, 56, 63, 68, 72, 75, 68, 58, 199, 642, 1147, 1145, 373, -317, -127, 148, -28, -77, 35, 14, -14, 32, 47, 35, 51, 65, 68, 82, 94, 98]"
1713644375233455971,"[110, 127, 136, 150, 171, 195, 225, 256, 282, 312, 336, 329, 326, 326, 291, 216, 124, 49, 2, -35, -65, -79, -84, -84, -77, -65, -63, -56, -44, -39, -30, -18, -16, -11, 0, 4, 9, 4, 0, 4, 9, 7, 2, -4, -11, -18, -23, -35, -39, -32, -30, -28, -23, -16, -7, -4, -4, 2, 4, 11, 21, 21, 21, 25, 30, 35, 42, 47, 47, 47, 49, 58, 65]"
1713644375794605694,"[65, 63, 63, 65, 70, 77, 65, 49, 37, 28, 32, 44, 49, 39, 25, 25, 39, 51, 49, 54, 70, 89, 96, 87, 70, 61, 51, 56, 70, 72, 72, 65, 63, 70, 70, 70, 211, 635, 1119, 1100, 345, -286, -79, 150, -39, -68, 49, 23, -4, 30, 37, 37, 58, 70, 72, 72, 82, 94, 110, 127, 134, 136, 155, 183, 209, 237, 263, 284, 308, 331, 329, 308, 275]"
1713644376355765591,"[216, 131, 51, 4, -30, -70, -89, -91, -87, -79, -75, -89, -101, -84, -63, -56, -49, -44, -42, -32, -18, -9, -4, -7, -7, -4, -4, -2, 2, -7, -25, -32, -28, -30, -39, -47, -42, -35, -28, -21, -18, -18, -18, -11, -4, 2, 4, 0, 2, 14, 21, 23, 23, 25, 25, 32, 42, 47, 44, 47, 44, 39, 35, 37, 42, 39, 28, 11, 9, 23, 25, 23, 30]"
1713644376916894970,"[39, 47, 47, 47, 51, 54, 58, 65, 54, 39, 42, 49, 56, 65, 65, 58, 65, 87, 103, 105, 89, 63, 56, 56, 61, 65, 63, 65, 70, 72, 77, 70, 65, 218, 656, 1126, 1091, 333, -279, -56, 169, -23, -47, 61, 25, 7, 54, 51, 44, 70, 75, 72, 79, 79, 82, 94, 105, 119, 134, 127, 127, 157, 195, 225, 256, 282, 296, 305, 305, 286, 237, 169, 103]"
1713644377478054867,"[49, 9, -18, -39, -47, -61, -79, -79, -56, -49, -51, -44, -39, -35, -21, -11, -14, -9, -2, 7, 16, 16, 7, -2, 2, 9, 9, 9, 2, -9, -14, -16, -14, -7, -9, -14, -7, 4, 4, 2, 11, 14, 9, 14, 11, 2, 2, 11, 16, 18, 35, 39, 11, -2, 14, 30, 30, 30, 32, 32, 39, 51, 56, 58, 51, 54, 68, 75, 79, 82, 72, 70, 82]"
1713644378039214768,"[89, 94, 105, 105, 96, 87, 79, 77, 65, 35, 30, 54, 56, 56, 65, 58, 47, 103, 399, 917, 1204, 759, -91, -270, 110, 101, -75, 4, 58, 14, 32, 65, 51, 47, 65, 65, 63, 77, 87, 89, 103, 122, 138, 157, 171, 176, 183, 214, 256, 284, 296, 303, 310, 301, 261, 199, 124, 56, 11, -18, -39, -54, -63, -63, -56, -47, -44, -54, -56, -49, -47, -44, -32]"
1713644378600344147,"[-28, -30, -32, -30, -30, -35, -37, -37, -35, -30, -23, -14, -14, -18, -14, -4, 4, 0, -18, -23, -11, -2, 4, 9, 11, 11, 0, -2, 14, 23, 21, 25, 32, 37, 44, 47, 47, 44, 23, 14, 30, 37, 35, 44, 51, 54, 61, 63, 65, 68, 72, 77, 82, 82, 84, 91, 89, 82, 84, 94, 108, 105, 84, 75, 72, 65, 72, 77, 75, 77, 82, 79, 75]"
