time,ecg
1713644537917128000,"[12634, 13137, 13617, 14059, 14461, 14852, 15226, 15567, 15877, 16162, 16432, 16698, 16954, 17175, 17363, 17545, 17709, 17864, 18027, 18158, 18255, 18347, 18429, 18502, 18575, 18662, 18723, 18699, 18683, 18730, 18753, 18732, 18716, 18697, 18655, 18648, 18685, 18622, 18462, 18375, 18325, 18243, 18170, 18088, 17996, 17909, 17803, 17712, 17622, 17486, 17413, 17610, 18041, 18304, 17789, 16710, 16336, 16630, 16474, 16112, 16065, 15990, 15797, 15682, 15569, 15426, 15296, 15164, 15035, 14906, 14765, 14638, 14506]"
1713644538478257379,"[14360, 14240, 14118, 13986, 13876, 13760, 13633, 13535, 13426, 13316, 13215, 13043, 12850, 12714, 12530, 12295, 12112, 11935, 11710, 11528, 11397, 11242, 11098, 10971, 10842, 10726, 10602, 10472, 10369, 10256, 10091, 9943, 9847, 9734, 9602, 9489, 9386, 9275, 9162, 9050, 8932, 8819, 8716, 8617, 8509, 8393, 8278, 8175, 8095, 7994, 7855, 7740, 7657, 7558, 7441, 7344, 7255, 7156, 7053, 6954, 6862, 6768, 6660, 6564, 6477, 6387, 6307, 6241, 6161, 6060, 5973, 5905, 5832]"
1713644539039386758,"[5755, 5679, 5590, 5510, 5449, 5381, 5310, 5242, 5160, 5073, 5009, 4953, 4887, 4816, 4731, 4654, 4602, 4553, 4503, 4456, 4390, 4318, 4231, 4139, 4085, 4035, 3965, 3915, 3882, 3835, 3786, 3727, 3659, 3685, 3984, 4477, 4656, 4038, 3146, 3064, 3384, 3243, 3057, 3118, 3095, 3008, 3005, 2996, 2942, 2899, 2871, 2845, 2822, 2796, 2770, 2732, 2702, 2685, 2676, 2667, 2655, 2645, 2648, 2657, 2655, 2645, 2631, 2598, 2547, 2476, 2375, 2264, 2161]"
1713644539600536485,"[2053, 1973, 1926, 1879, 1841, 1820, 1782, 1754, 1754, 1745, 1709, 1662, 1634, 1622, 1596, 1556, 1538, 1526, 1509, 1500, 1493, 1484, 1467, 1448, 1429, 1418, 1404, 1389, 1368, 1349, 1335, 1312, 1284, 1260, 1239, 1218, 1206, 1194, 1173, 1150, 1131, 1105, 1081, 1072, 1067, 1055, 1039, 1025, 1011, 1001, 999, 992, 976, 959, 947, 950, 964, 966, 947, 917, 889, 874, 870, 853, 832, 825, 823, 818, 811, 801, 785, 794, 1011]"
1713644540161676034,"[1521, 1952, 1665, 747, 350, 712, 787, 547, 555, 623, 578, 573, 609, 604, 595, 609, 620, 618, 623, 630, 630, 639, 642, 637, 653, 682, 705, 738, 773, 801, 823, 834, 834, 825, 785, 707, 620, 540, 472, 428, 397, 369, 355, 352, 352, 357, 357, 355, 357, 357, 357, 364, 366, 364, 357, 352, 359, 366, 366, 364, 364, 364, 362, 369, 369, 362, 355, 352, 352, 357, 355, 348, 331]"
1713644540722835935,"[312, 305, 305, 296, 282, 263, 246, 244, 244, 239, 225, 214, 216, 214, 202, 202, 206, 202, 206, 216, 221, 221, 218, 218, 223, 232, 237, 237, 232, 230, 237, 244, 249, 249, 244, 242, 249, 254, 254, 254, 246, 242, 249, 256, 256, 246, 228, 228, 237, 242, 258, 277, 270, 254, 246, 239, 232, 230, 225, 225, 235, 239, 242, 237, 209, 197, 418, 961, 1444, 1208, 263, -195, 169]"
1713644541283970401,"[265, 47, 94, 171, 105, 101, 150, 148, 124, 127, 141, 159, 174, 185, 190, 197, 216, 239, 261, 282, 303, 326, 362, 399, 428, 446, 451, 444, 428, 388, 324, 251, 183, 129, 96, 79, 58, 37, 30, 39, 49, 58, 68, 72, 72, 79, 89, 98, 105, 108, 108, 112, 119, 127, 129, 127, 122, 108, 89, 94, 105, 101, 98, 105, 110, 115, 122, 119, 105, 84, 77, 89, 94]"
1713644541845125211,"[89, 84, 77, 75, 72, 65, 63, 68, 68, 70, 75, 63, 44, 51, 61, 63, 70, 75, 75, 79, 84, 89, 91, 94, 96, 101, 103, 98, 89, 87, 96, 103, 105, 115, 119, 122, 141, 164, 166, 155, 143, 129, 129, 136, 136, 136, 138, 141, 150, 145, 105, 129, 430, 983, 1331, 910, -4, -221, 164, 131, -58, 37, 91, 35, 56, 94, 89, 98, 115, 117, 129, 148, 159]"
1713644542406269851,"[169, 176, 188, 209, 230, 254, 282, 310, 331, 341, 366, 395, 397, 390, 364, 310, 244, 176, 108, 44, 4, -11, -9, -2, -7, -9, 2, 14, 18, 25, 35, 39, 39, 44, 58, 68, 70, 68, 68, 72, 82, 91, 87, 54, 30, 47, 63, 61, 63, 72, 72, 58, 49, 54, 56, 49, 49, 44, 39, 47, 47, 30, 25, 35, 44, 51, 54, 49, 49, 61, 82, 105, 112]"
1713644542967414487,"[103, 89, 77, 75, 82, 70, 35, 35, 58, 56, 47, 47, 37, 84, 388, 928, 1232, 764, -110, -268, 136, 119, -49, 39, 87, 37, 63, 98, 94, 94, 105, 115, 127, 143, 159, 159, 145, 155, 190, 216, 242, 265, 284, 317, 364, 397, 409, 404, 381, 333, 270, 197, 127, 58, 16, -2, -9, -14, -18, -21, -11, -2, 4, 11, 18, 21, 25, 39, 51, 58, 61, 63, 68]"
1713644543528569301,"[68, 63, 61, 65, 63, 63, 72, 79, 75, 58, 51, 61, 68, 75, 79, 79, 77, 68, 65, 75, 77, 70, 65, 61, 58, 56, 56, 63, 56, 42, 42, 32, 11, 4, 7, 11, 21, 25, 30, 37, 44, 47, 39, 136, 529, 1105, 1279, 587, -254, -181, 181, 35, -72, 56, 63, 16, 56, 82, 70, 82, 103, 108, 115, 129, 136, 131, 141, 166, 183, 204, 237, 268, 301]"
1713644544089703763,"[336, 362, 383, 395, 385, 357, 289, 199, 134, 77, 21, -14, -30, -37, -35, -30, -30, -23, -16, -14, -23, -37, -25, -14, -18, -16, 2, 11, 11, 18, 25, 32, 42, 47, 44, 47, 51, 56, 61, 65, 63, 65, 68, 75, 79, 82, 79, 77, 84, 89, 94, 96, 91, 91, 94, 94, 84, 77, 79, 79, 82, 91, 96, 96, 94, 91, 98, 105, 108, 108, 103, 101, 108]"
1713644544650863664,"[115, 115, 110, 96, 77, 84, 101, 105, 101, 101, 110, 122, 105, 68, 32, 11, 2, 2, 2, 0, -7, -11, -4, 2, 0, 0, 166, 649, 1192, 1145, 275, -359, -79, 119, -98, -94, 25, -14, -32, 11, 16, 16, 42, 56, 54, 58, 68, 70, 75, 96, 112, 122, 150, 188, 221, 254, 279, 298, 322, 341, 343, 322, 272, 204, 141, 84, 37, 2, -25, -42, -37, -30, -23]"
1713644545212023561,"[-18, -16, -11, 0, 7, 2, -11, -23, -11, 0, 7, 16, 11, -9, -9, 7, 14, 21, 23, 18, 21, 35, 44, 44, 42, 39, 49, 61, 65, 68, 68, 65, 68, 77, 84, 82, 77, 75, 65, 58, 70, 75, 68, 72, 87, 87, 84, 87, 89, 89, 91, 98, 105, 103, 98, 101, 101, 105, 110, 108, 103, 105, 108, 108, 112, 112, 110, 112, 119, 134, 129, 94, 54]"
1713644545773152940,"[30, 30, 28, 18, 11, 9, 7, 7, 11, 4, -28, 37, 399, 966, 1222, 642, -244, -284, 103, 0, -141, -14, 9, -44, -4, 28, 16, 28, 39, 37, 39, 51, 63, 77, 98, 122, 138, 152, 185, 223, 258, 291, 322, 345, 357, 359, 350, 319, 256, 174, 105, 51, 11, -14, -28, -37, -44, -37, -23, -14, -16, -25, -30, -23, -28, -42, -32, -16, -11, -2, 11, 18, 28]"
1713644546334312837,"[32, 28, 30, 39, 51, 54, 39, 18, 18, 37, 47, 44, 44, 44, 54, 63, 68, 68, 68, 68, 61, 54, 63, 70, 68, 65, 75, 84, 87, 89, 84, 79, 77, 77, 84, 91, 96, 98, 96, 75, 44, 25, 23, 25, 30, 37, 42, 42, 39, 42, 44, 39, 162, 599, 1150, 1204, 406, -366, -183, 122, -72, -131, 9, -4, -37, 9, 18, 11, 39, 58, 63, 72, 84]"
1713644546895467651,"[101, 119, 138, 157, 171, 188, 218, 258, 291, 319, 326, 319, 324, 336, 317, 261, 185, 108, 54, 11, -21, -39, -49, -58, -49, -32, -28, -23, -30, -37, -7, 35, 23, 7, 32, 49, 37, 44, 56, 49, 30, 44, 91, 84, 54, 63, 70, 58, 61, 56, 32, 32, 47, 47, 47, 61, 65, 63, 65, 68, 72, 79, 70, 63, 70, 70, 65, 63, 58, 44, 37, 49, 49]"
1713644547456602113,"[35, 54, 75, 44, 25, 54, 58, 35, 25, 37, 47, 51, 56, 56, 58, 63, 65, 70, 75, 77, 82, 89, 87, 94, 108, 124, 136, 129, 115, 117, 105, 89, 96, 108, 94, 79, 89, 91, 82, 91, 275, 771, 1291, 1187, 279, -357, -44, 185, -49, -58, 75, 32, 4, 56, 63, 54, 77, 84, 87, 112, 117, 103, 143, 192, 183, 183, 214, 232, 254, 293, 329, 345, 362]"
1713644548017762014,"[378, 383, 359, 303, 221, 129, 68, 30, -16, -58, -56, -44, -51, -37, -23, -35, -35, -11, 2, 7, 9, 7, 16, 35, 37, 23, 18, 28, 21, 21, 39, 42, 32, 37, 37, 18, 7, 14, 16, 11, 21, 37, 35, 18, 9, 25, 44, 47, 47, 44, 35, 16, 0, -2, 7, 16, 18, 0, -18, -7, 11, 21, 25, 23, 49, 77, 63, 39, 25, 18, 28, 32, 28]"
1713644548578891393,"[51, 61, 28, 44, 89, 72, 162, 562, 1039, 1074, 390, -305, -164, 145, -7, -72, 39, 11, -23, 28, 35, 23, 58, 70, 63, 79, 84, 77, 89, 108, 134, 155, 166, 197, 237, 282, 331, 348, 345, 364, 376, 345, 284, 195, 101, 51, 16, -23, -49, -70, -91, -82, -44, -44, -58, -47, -42, -28, 11, 9, -7, 23, 42, 25, 35, 65, 51, 32, 70, 91, 72, 65, 75]"
1713644549140020772,"[72, 65, 87, 119, 101, 63, 84, 91, 44, 63, 105, 70, 42, 79, 103, 96, 87, 82, 79, 70, 47, 35, 42, 42, 32, 54, 75, 82, 94, 162, 453, 879, 926, 312, -282, -152, 117, 14, -44, 23, 7, -4, 32, 42, 25, 39, 72, 72, 72, 103, 119, 124, 152, 174, 178, 206, 251, 286, 317, 350, 362, 362, 381, 388, 322, 235, 171, 87, 14, -16, -44, -84, -89]"
1713644549701150151,"[-77, -77, -77, -65, -56, -54, -30, -11, -39, -49, -11, -7, -23, -23, -32, -28, 11, 16, -7, 11, 35, 21, 16, 39, 44, 28, 39, 58, 44, 47, 54, 25, 23, 61, 63, 42, 56, 72, 79, 98, 84, 54, 54, 47, 42, 72, 82, 61, 68, 79, 70, 58, 70, 228, 651, 1098, 1006, 230, -308, -32, 171, -25, -25, 79, 28, 7, 56, 61, 56, 75, 87, 77, 68]"
1713644550262279530,"[82, 108, 115, 119, 122, 110, 112, 152, 199, 232, 249, 246, 249, 263, 258, 218, 143, 44, -25, -58, -89, -124, -157, -162, -148, -143, -129, -103, -98, -103, -79, -51, -54, -47, -25, -30, -25, 4, 11, 16, 32, 23, 16, 23, 42, 51, 32, 37, 61, 49, 51, 75, 58, 35, 44, 49, 39, 51, 65, 58, 58, 75, 72, 72, 79, 75, 75, 87, 96, 87, 72, 65, 58]"
1713644550823439431,"[54, 68, 77, 65, 61, 72, 89, 115, 119, 84, 63, 61, 49, 44, 44, 37, 54, 68, 56, 61, 75, 68, 256, 809, 1319, 1091, 159, -312, 21, 148, -49, -23, 61, 25, 18, 47, 63, 72, 77, 89, 98, 105, 122, 129, 136, 136, 131, 157, 209, 237, 249, 286, 333, 352, 359, 364, 352, 315, 251, 164, 75, 11, -21, -63, -119, -150, -155, -157, -145, -129, -124, -112, -101]"
1713644551384568810,"[-101, -94, -75, -65, -79, -87, -79, -79, -72, -58, -54, -47, -32, -23, -28, -18, 2, 0, -4, 14, 16, 9, 23, 30, 25, 30, 39, 49, 47, 44, 58, 61, 63, 77, 79, 75, 72, 68, 79, 105, 110, 91, 70, 72, 84, 75, 68, 77, 82, 91, 94, 96, 89, 75, 225, 724, 1302, 1244, 317, -366, -82, 162, -49, -72, 44, 11, -9, 44, 39, 14, 32, 51, 56]"
1713644551945728707,"[75, 98, 98, 103, 127, 150, 174, 199, 211, 216, 256, 308, 333, 345, 350, 336, 296, 225, 143, 68, 7, -35, -58, -70, -72, -84, -91, -91, -89, -84, -84, -87, -94, -96, -82, -65, -58, -54, -54, -49, -32, -23, -16, -14, -16, -9, 0, 7, 2, -18, -37, -23, -2, 2, 11, 16, 14, 23, 32, 23, 18, 23, 25, 30, 42, 51, 68, 82, 82, 77, 63, 54, 56]"
1713644552506858086,"[58, 54, 61, 75, 79, 82, 79, 65, 63, 209, 686, 1270, 1262, 381, -326, -68, 176, -39, -72, 37, 7, -4, 44, 47, 32, 51, 70, 79, 94, 103, 108, 119, 141, 162, 183, 204, 228, 261, 298, 331, 357, 369, 348, 315, 282, 225, 143, 65, 2, -44, -75, -94, -101, -108, -112, -112, -110, -98, -87, -84, -77, -68, -58, -47, -39, -39, -32, -25, -18, -7, -4, -4, 0]"
1713644553068017983,"[4, 11, 18, 21, 21, 28, 28, 32, 42, 37, 30, 37, 47, 47, 44, 30, 23, 35, 42, 44, 49, 49, 54, 63, 65, 68, 77, 77, 82, 98, 115, 127, 124, 98, 65, 39, 39, 54, 54, 51, 61, 56, 42, 49, 44, 56, 277, 792, 1237, 985, 82, -322, 54, 145, -70, -16, 70, 16, 23, 70, 61, 58, 79, 89, 98, 112, 119, 127, 138, 157, 176, 190, 197]"
1713644553629147362,"[216, 239, 270, 296, 305, 301, 284, 249, 211, 157, 82, 11, -39, -75, -91, -96, -98, -101, -98, -87, -72, -61, -51, -47, -39, -30, -23, -37, -47, -37, -28, -23, -21, -23, -21, -16, -14, -2, 9, 16, 21, 18, 21, 28, 39, 51, 51, 47, 49, 58, 65, 70, 72, 68, 70, 79, 87, 91, 91, 84, 84, 94, 101, 103, 94, 79, 84, 96, 101, 103, 101, 91, 96]"
1713644554190307259,"[110, 110, 110, 110, 101, 103, 115, 119, 115, 101, 82, 87, 98, 96, 101, 98, 87, 94, 105, 84, 58, 63, 65, 58, 56, 63, 70, 75, 89, 108, 110, 94, 77, 68, 68, 77, 84, 89, 89, 79, 70, 65, 61, 171, 578, 1088, 1128, 397, -305, -143, 131, -51, -110, 11, -7, -47, -18, -11, -14, 7, 28, 35, 42, 54, 63, 79, 101, 119, 134, 152, 181, 211, 244]"
1713644554751467160,"[270, 289, 308, 319, 319, 310, 265, 185, 110, 56, 11, -35, -84, -108, -105, -115, -110, -89, -79, -72, -58, -47, -37, -21, -11, -9, 0, 9, 16, 23, 25, 28, 35, 35, 37, 42, 44, 49, 51, 51, 58, 61, 58, 63, 68, 70, 63, 51, 49, 58, 65, 63, 68, 72, 70, 77, 82, 79, 84, 84, 84, 94, 98, 91, 94, 98, 96, 101, 108, 103, 101, 103, 96]"
1713644555312606713,"[87, 87, 87, 84, 68, 30, 11, 9, 0, -7, -18, -21, -4, 4, 2, 4, 21, 49, 63, 51, 30, 21, 21, 30, 39, 39, 39, 44, 51, 56, 54, 68, 258, 729, 1161, 976, 136, -317, 2, 127, -72, -35, 63, 16, 7, 49, 51, 54, 77, 89, 87, 94, 112, 124, 141, 157, 166, 181, 206, 237, 270, 298, 317, 333, 355, 366, 362, 336, 282, 199, 112, 44, 9]"
1713644555873771697,"[-23, -54, -63, -54, -49, -42, -42, -58, -61, -39, -23, -18, -9, -9, -4, 11, 23, 25, 25, 21, 25, 37, 44, 49, 47, 39, 39, 42, 28, 16, 9, 7, 7, 4, 4, 2, -11, -16, -4, 4, 7, 11, 9, 7, 14, 25, 30, 32, 30, 28, 37, 47, 51, 54, 49, 47, 54, 63, 70, 75, 68, 54, 37, 28, 28, 37, 37, 37, 49, 61, 65, 68, 65]"
1713644556434916333,"[77, 101, 117, 117, 94, 70, 68, 77, 82, 79, 68, 54, 61, 72, 70, 68, 185, 592, 1093, 1112, 364, -310, -103, 169, -16, -61, 63, 39, 4, 51, 65, 56, 77, 91, 89, 98, 112, 124, 141, 152, 164, 183, 204, 230, 263, 289, 312, 338, 355, 364, 366, 343, 286, 209, 124, 39, -14, -42, -65, -75, -77, -72, -65, -65, -65, -65, -58, -47, -39, -44, -44, -39, -47]"
1713644556996071147,"[-47, -39, -39, -35, -25, -25, -25, -35, -51, -44, -35, -49, -51, -39, -35, -28, -16, -14, -7, 0, 4, 14, 21, 23, 28, 32, 37, 47, 51, 49, 54, 58, 63, 70, 72, 75, 75, 75, 79, 89, 89, 89, 89, 82, 77, 87, 91, 72, 49, 44, 58, 68, 70, 72, 72, 82, 105, 127, 124, 101, 79, 75, 84, 91, 89, 87, 87, 91, 98, 101, 89, 150, 479]"
1713644557557205609,"[1001, 1194, 606, -209, -216, 134, 28, -89, 30, 44, -11, 21, 54, 49, 61, 77, 77, 82, 98, 115, 129, 141, 148, 162, 192, 221, 249, 277, 296, 319, 348, 362, 362, 343, 286, 214, 152, 94, 39, -2, -49, -87, -84, -70, -68, -68, -63, -54, -37, -28, -18, -14, -16, -4, 11, 18, 23, 23, 18, 23, 32, 30, 18, 11, 11, 14, 0, -18, -18, -25, -42, -35, -18]"
1713644558118365510,"[-16, -14, -16, -18, -11, 0, 7, 0, -21, -23, -9, 2, 7, 11, 9, 11, 21, 32, 37, 37, 37, 39, 47, 54, 56, 49, 42, 47, 56, 63, 65, 65, 63, 56, 37, 35, 49, 54, 51, 54, 68, 89, 108, 110, 89, 68, 65, 75, 77, 75, 75, 79, 87, 91, 89, 79, 119, 392, 898, 1187, 726, -122, -254, 136, 101, -65, 30, 72, 16, 39, 75, 68, 70]"
1713644558679505063,"[87, 94, 101, 112, 127, 134, 143, 159, 174, 195, 214, 221, 239, 277, 303, 319, 322, 312, 303, 277, 214, 145, 82, 25, -16, -39, -65, -96, -112, -103, -84, -79, -75, -61, -51, -47, -30, -18, -16, -7, 0, 4, 11, 18, 18, 21, 25, 23, 18, 7, -2, -4, -4, 0, 7, 2, -7, -11, -18, -21, -9, -7, -9, -7, -2, 4, 11, 14, 14, 16, 18, 28, 35]"
1713644559240654786,"[37, 37, 37, 42, 49, 56, 56, 35, 7, 4, 23, 30, 30, 32, 32, 37, 49, 56, 58, 49, 30, 32, 49, 58, 75, 91, 91, 79, 68, 63, 65, 63, 61, 70, 79, 84, 84, 77, 63, 101, 383, 900, 1190, 719, -134, -258, 136, 101, -70, 23, 65, 16, 44, 79, 65, 63, 82, 94, 105, 122, 127, 127, 141, 164, 183, 202, 223, 242, 272, 308, 333, 341, 336]"
1713644559801804513,"[331, 326, 296, 237, 166, 94, 28, -9, -28, -44, -49, -56, -82, -84, -65, -56, -56, -63, -70, -54, -35, -23, -16, -14, -11, 0, 9, 14, 16, 16, 0, -9, 7, 16, 2, -11, -2, 9, 11, 7, 0, -9, -18, -21, -14, -9, -9, -11, -7, 2, 11, 14, 16, 16, 16, 25, 32, 37, 35, 35, 39, 49, 47, 32, 32, 39, 44, 47, 56, 61, 61, 63, 82]"
1713644560362944062,"[108, 119, 105, 63, 23, 21, 39, 44, 30, 16, 25, 37, 39, 37, 70, 319, 825, 1171, 816, -39, -322, 54, 103, -87, -14, 58, 4, 18, 61, 49, 51, 79, 89, 91, 103, 115, 129, 145, 155, 174, 202, 225, 251, 286, 317, 348, 371, 378, 378, 366, 326, 258, 178, 96, 21, -28, -51, -63, -70, -68, -61, -61, -61, -47, -35, -32, -28, -21, -9, -7, -23, -35, -25]"
1713644560924073441,"[-14, -9, 2, 7, 2, -2, -14, -11, 0, 4, 0, 4, 4, -2, 2, 9, 2, -9, -9, 2, 11, 7, -4, -11, -16, -18, -14, -9, -11, -7, 0, 4, 16, 37, 51, 44, 30, 21, 18, 16, 14, 16, 21, 28, 28, 18, 11, 9, 39, 284, 801, 1197, 874, -25, -362, 39, 119, -89, -35, 42, -4, 7, 44, 14, -11, 16, 39, 44, 61, 77, 79, 94, 119]"
1713644561485233342,"[141, 164, 195, 216, 235, 272, 312, 333, 336, 317, 289, 254, 188, 110, 42, -18, -56, -70, -77, -79, -79, -82, -72, -58, -47, -39, -37, -37, -23, -9, 0, 9, 14, 14, 21, 23, 16, 16, 18, 16, 21, 32, 37, 39, 35, 30, 37, 49, 54, 51, 49, 47, 54, 63, 68, 65, 47, 25, 35, 51, 49, 49, 49, 47, 54, 63, 65, 63, 47, 42, 54, 63, 63]"
1713644562046372895,"[63, 54, 44, 44, 56, 58, 47, 32, 39, 54, 51, 32, -2, -32, -28, -16, -14, -11, -9, -4, 0, 7, 9, 0, 110, 529, 1074, 1152, 409, -345, -192, 115, -61, -124, 4, -11, -47, 2, 18, 9, 30, 44, 47, 61, 75, 87, 103, 115, 112, 110, 131, 171, 204, 235, 270, 298, 317, 329, 324, 289, 232, 166, 94, 35, -7, -42, -58, -63, -68, -63, -56, -49, -37]"
1713644562607522618,"[-30, -25, -16, -7, -2, 7, 14, 16, 21, 28, 32, 39, 44, 44, 39, 30, 18, 23, 16, 7, 14, 18, 18, 30, 35, 32, 35, 39, 44, 51, 56, 54, 54, 56, 61, 68, 70, 68, 68, 70, 63, 44, 32, 42, 44, 42, 54, 61, 61, 56, 47, 47, 58, 63, 63, 63, 61, 56, 51, 54, 56, 51, 42, 35, 35, 30, 21, 14, 16, 21, 25, 30, 35]"
1713644563168682515,"[30, 30, 42, 49, 54, 63, 65, 54, 39, 23, 4, 4, 7, 7, 16, 28, 35, 37, 35, 25, 35, 211, 682, 1175, 1091, 256, -329, -39, 164, -51, -63, 49, 16, -11, 11, 7, 2, 25, 44, 54, 63, 58, 54, 77, 105, 124, 148, 166, 188, 223, 263, 296, 322, 336, 338, 338, 322, 272, 202, 127, 58, 14, -11, -30, -39, -47, -51, -42, -30, -21, -16, -14, -16]"
1713644563729811894,"[-21, -16, -2, 4, 2, 4, 16, 25, 30, 21, 4, 4, 18, 25, 28, 28, 25, 28, 37, 42, 47, 47, 44, 47, 54, 47, 23, 14, 23, 28, 30, 35, 21, 0, 2, 11, 11, 11, 7, -4, -7, -11, -9, 0, 0, -2, 2, 7, 11, 18, 21, 23, 25, 30, 35, 42, 42, 42, 47, 51, 54, 63, 63, 58, 51, 44, 51, 68, 82, 98, 101, 77, 61]"
1713644564290971791,"[58, 54, 51, 54, 56, 75, 63, 11, 14, 54, 127, 449, 1008, 1258, 660, -214, -235, 157, 58, -103, 7, 39, -18, 7, 23, 7, 25, 49, 49, 61, 70, 77, 115, 138, 138, 155, 178, 190, 211, 284, 336, 319, 329, 383, 376, 319, 296, 263, 171, 79, 44, 18, -21, -49, -70, -70, -56, -49, -42, -54, -54, -23, -11, 4, 18, -7, 11, 35, 2, 2, 4, -11, 7]"
1713644564852131692,"[21, 7, -16, -30, -14, -32, -63, -37, -21, -35, -28, -25, -44, -44, -47, -77, -84, -28, -7, -44, -37, -2, 4, -4, -2, 18, 25, 9, 9, 32, 49, 54, 61, 63, 51, 61, 77, 79, 72, 72, 79, 87, 91, 91, 89, 94, 98, 79, 84, 124, 136, 115, 105, 105, 91, 87, 96, 87, 77, 75, 101, 124, 98, 65, 110, 352, 837, 1246, 985, 96, -293, 65, 145]"
1713644565413261071,"[-44, 25, 89, 18, 18, 42, 16, 7, 25, 37, 47, 68, 89, 77, 70, 96, 124, 143, 169, 199, 228, 263, 298, 326, 343, 343, 329, 296, 242, 171, 96, 32, -14, -39, -51, -54, -54, -65, -75, -65, -47, -42, -49, -51, -47, -32, -25, -25, -37, -44, -47, -47, -37, -32, -32, -35, -35, -23, -14, -16, -18, -18, -18, -11, -14, -4, 16, 9, 0, 0, -16, -44, -44]"
1713644565974420968,"[-28, -25, -18, -7, -4, -7, 2, 7, 11, 16, 4, -14, -11, -4, 0, 18, 32, 30, 32, 37, 42, 49, 51, 56, 58, 65, 89, 108, 96, 68, 51, 47, 49, 51, 51, 56, 63, 65, 68, 68, 54, 112, 435, 976, 1260, 750, -141, -261, 138, 82, -82, 21, 54, -2, 25, 54, 37, 37, 54, 70, 65, 39, 54, 65, 54, 103, 112, 94, 176, 244, 230, 254, 293]"
1713644566535550347,"[312, 350, 369, 338, 291, 218, 127, 47, -11, -44, -65, -87, -91, -84, -84, -75, -63, -65, -63, -56, -51, -37, -23, -23, -30, -25, -9, 11, 18, 16, 16, 21, 28, 37, 42, 39, 32, 21, 25, 28, 23, 25, 16, 2, 18, 25, 0, -32, -35, 2, 11, -23, -28, -2, -2, -7, -4, -32, -56, -49, -54, -58, -32, -11, -37, -32, 21, 28, -9, 25, 291, 801, 1112]"
1713644567096705161,"[689, -155, -355, 75, 117, -143, -122, 16, 32, -2, 18, 51, 32, 30, 54, 58, 51, 72, 115, 119, 143, 211, 211, 202, 265, 317, 338, 366, 383, 378, 388, 385, 312, 211, 131, 49, -7, -21, -30, -56, -68, -70, -65, -56, -49, -54, -51, -44, -44, -51, -49, -35, -37, -35, -9, -2, -4, 11, 21, 11, 18, 35, 35, 30, 32, 32, 35, 47, 49, 39, 42, 54, 54]"
1713644567657839623,"[54, 51, 42, 39, 44, 49, 63, 61, 42, 37, 51, 72, 91, 98, 77, 56, 49, 51, 58, 58, 54, 56, 63, 68, 72, 61, 58, 216, 670, 1164, 1093, 265, -343, -87, 108, -103, -115, -16, -61, -72, -28, -25, -42, -47, -39, -25, -14, 2, 21, 32, 49, 77, 101, 124, 162, 197, 232, 268, 293, 312, 324, 303, 258, 197, 115, 39, -18, -58, -75, -84, -87, -82, -79]"
1713644568218999524,"[-70, -58, -49, -42, -39, -47, -49, -32, -18, -18, -11, -2, 2, 14, 23, 23, 25, 30, 35, 42, 42, 42, 42, 42, 42, 35, 28, 35, 39, 37, 44, 56, 56, 56, 56, 44, 28, 35, 47, 42, 39, 49, 61, 63, 65, 68, 65, 70, 89, 112, 119, 110, 94, 79, 72, 77, 70, 51, 47, 58, 65, 68, 72, 54, 56, 277, 809, 1291, 1079, 157, -324, 25, 148]"
1713644568780128903,"[-68, -25, 61, 2, 7, 58, 54, 47, 42, 28, 39, 54, 61, 68, 70, 68, 72, 84, 108, 129, 157, 192, 228, 254, 275, 279, 254, 195, 112, 30, -21, -68, -115, -129, -124, -122, -115, -112, -110, -94, -75, -63, -54, -49, -44, -32, -18, -16, -23, -30, -21, -4, 2, 7, 16, 16, 11, 23, 32, 35, 37, 42, 42, 44, 54, 63, 63, 58, 58, 65, 72, 75, 79]"
1713644569341288800,"[75, 70, 79, 89, 89, 87, 79, 63, 61, 75, 77, 58, 42, 49, 63, 65, 65, 68, 68, 68, 58, 37, 39, 49, 47, 51, 63, 65, 68, 68, 70, 72, 77, 82, 84, 84, 89, 87, 82, 77, 75, 77, 79, 87, 112, 131, 124, 103, 87, 79, 82, 89, 84, 82, 89, 89, 91, 94, 72, 84, 341, 886, 1295, 945, 7, -315, 56, 68, -141, -56, 7, -68, -58]"
1713644569902418179,"[-14, -21, -16, 2, 14, 18, 30, 42, 42, 42, 68, 89, 89, 91, 119, 157, 195, 228, 254, 275, 282, 270, 244, 188, 110, 47, 0, -37, -56, -70, -91, -101, -91, -75, -61, -51, -47, -35, -28, -21, -4, 4, 2, 9, 18, 25, 35, 35, 37, 42, 42, 47, 58, 58, 56, 56, 58, 63, 72, 75, 68, 65, 58, 51, 58, 63, 72, 77, 72, 77, 89, 84, 79]"
1713644570463572993,"[79, 84, 89, 94, 79, 39, 14, 25, 39, 42, 44, 44, 44, 51, 56, 47, 44, 44, 39, 42, 37, 18, -7, -23, -21, 2, 18, 21, 18, 23, 23, 25, 37, 49, 61, 72, 72, 65, 51, 37, 39, 54, 49, 49, 63, 70, 65, 58, 47, 77, 341, 872, 1262, 910, -7, -310, 84, 119, -91, -18, 58, 4, 16, 58, 44, 44, 70, 77, 84, 101, 89, 72, 94]"
1713644571024707455,"[122, 138, 162, 183, 202, 239, 282, 312, 326, 319, 308, 303, 263, 188, 122, 56, -4, -39, -56, -65, -72, -75, -72, -61, -47, -37, -35, -30, -21, -9, 2, 9, 16, 16, 18, 28, 39, 44, 47, 47, 49, 54, 58, 58, 47, 28, 21, 30, 37, 32, 23, 11, 4, 2, 2, 4, 2, 2, 7, 14, 21, 25, 14, -7, -9, 4, 14, 16, 16, 21, 25, 32, 39]"
1713644571585867356,"[39, 42, 42, 30, 23, 35, 25, 7, 18, 32, 35, 44, 49, 51, 70, 89, 96, 96, 79, 63, 61, 65, 68, 70, 70, 77, 84, 84, 75, 68, 181, 576, 1095, 1182, 482, -258, -136, 176, 18, -63, 56, 49, 9, 54, 70, 56, 70, 84, 87, 101, 115, 119, 131, 148, 162, 159, 155, 181, 223, 251, 282, 317, 338, 345, 341, 312, 256, 183, 98, 30, -11, -42, -63]"
1713644572147006909,"[-65, -65, -68, -61, -56, -47, -32, -30, -32, -42, -58, -54, -35, -30, -32, -37, -39, -35, -32, -39, -42, -32, -28, -23, -18, -18, -30, -42, -32, -18, -14, -9, -9, -7, 4, 11, 16, 23, 23, 23, 30, 42, 47, 47, 42, 47, 61, 61, 42, 25, 23, 32, 42, 49, 56, 58, 51, 51, 54, 49, 49, 58, 58, 56, 70, 79, 82, 91, 105, 117, 119, 108, 91]"
1713644572708156632,"[82, 77, 82, 89, 91, 96, 94, 87, 91, 87, 131, 430, 959, 1248, 776, -96, -251, 117, 61, -110, -2, 49, -7, 18, 51, 32, 47, 75, 79, 84, 96, 103, 112, 136, 155, 171, 183, 204, 239, 275, 296, 301, 303, 317, 331, 317, 275, 209, 131, 54, -11, -44, -56, -77, -87, -79, -70, -61, -51, -47, -47, -35, -18, -11, -4, 0, 2, 9, 21, 28, 32, 32, 35]"
1713644573269306359,"[42, 42, 49, 51, 42, 30, 28, 30, 21, -4, -30, -37, -35, -39, -42, -32, -32, -30, -21, -14, -11, -9, -7, 0, 4, 11, 18, 16, 18, 23, 32, 39, 37, 25, 11, 14, 23, 30, 39, 35, 28, 25, 30, 39, 44, 49, 72, 94, 87, 75, 65, 54, 58, 63, 61, 63, 72, 77, 79, 79, 68, 115, 409, 936, 1258, 825, -65, -265, 124, 108, -65, 30, 65]"
1713644573830445908,"[-4, 18, 61, 44, 47, 68, 68, 56, 65, 89, 103, 112, 131, 143, 164, 202, 232, 258, 296, 331, 350, 369, 376, 350, 301, 230, 134, 54, 9, -35, -75, -94, -101, -94, -82, -82, -82, -68, -49, -37, -32, -28, -18, -9, 0, 11, 16, 16, 23, 37, 42, 44, 47, 42, 39, 49, 61, 61, 58, 61, 61, 65, 75, 70, 54, 42, 47, 51, 47, 44, 49, 44, 35]"
1713644574391575287,"[32, 35, 30, 14, -9, -16, -4, 4, 16, 32, 39, 39, 37, 25, 16, 16, 16, 21, 18, -2, -7, 4, 2, -9, 21, 244, 743, 1154, 886, 11, -381, -4, 122, -84, -51, 37, -4, 4, 54, 44, 32, 61, 82, 87, 98, 108, 115, 131, 152, 174, 202, 218, 237, 282, 319, 333, 352, 371, 366, 345, 305, 232, 150, 77, 16, -23, -37, -47, -54, -56, -56, -44, -30]"
1713644574952735188,"[-25, -23, -23, -25, -7, 11, 4, -9, -9, 0, -2, -21, -25, -11, -18, -28, -11, 2, 2, 4, 9, 16, 21, 28, 30, 30, 32, 37, 44, 54, 56, 51, 47, 54, 70, 82, 89, 98, 101, 101, 101, 89, 84, 91, 77, 68, 87, 103, 119, 127, 89, 37, 35, 42, 14, 25, 54, 25, 28, 89, 72, -28, -25, 239, 764, 1232, 1023, 119, -359, -16, 124, -115, -77]"
1713644575513864567,"[70, 21, -18, 2, -23, -35, 7, 28, 9, 28, 75, 47, 16, 68, 112, 112, 159, 216, 204, 221, 296, 345, 343, 315, 312, 319, 228, 112, 65, 21, -2, -9, -75, -91, -16, -11, -70, -75, -47, -39, -47, -32, 0, 16, 18, 4, -18, 7, 56, 56, 47, 44, 44, 49, 61, 91, 72, 28, 39, 61, 63, 68, 63, 91, 112, 56, 56, 101, 63, 2, 2, 47, 68]"
1713644576074993946,"[61, 42, 23, 47, 112, 119, 49, 23, 23, 2, 25, 56, 7, -9, 58, 77, 47, 37, 56, 162, 512, 1011, 1093, 413, -319, -192, 183, 54, -94, 2, 21, -30, 4, 30, 44, 61, -4, -39, 37, 82, 28, 23, 77, 89, 129, 169, 159, 211, 258, 230, 235, 279, 322, 326, 263, 195, 138, 72, -9, -75, -103, -138, -157, -122, -105, -112, -94, -84, -94, -61, -16, -28, -39]"
1713644576636143673,"[-9, -14, -25, 2, 2, 11, 30, 4, 18, 63, 58, 0, -30, 11, 18, 4, 28, 28, 49, 56, 4, 21, 61, 42, 28, 39, 49, 61, 84, 98, 110, 103, 70, 70, 87, 75, 70, 87, 79, 75, 94, 72, 44, 79, 122, 178, 479, 961, 1103, 529, -239, -216, 171, 35, -110, 23, 11, -47, 23, 51, 25, 49, 79, 72, 75, 84, 77, 89, 122, 138, 145, 183, 225]"
1713644577197283222,"[242, 268, 301, 326, 333, 324, 303, 268, 166, 28, -9, -44, -136, -131, -122, -188, -176, -127, -143, -148, -110, -117, -145, -112, -56, -35, -42, -42, -32, -35, -14, 30, 11, -7, 37, 61, 35, 16, 16, 30, 44, 47, 28, 44, 61, 18, 0, 11, 4, 18, 44, 51, 44, 56, 105, 122, 84, 65, 82, 75, 28, 42, 108, 79, 65, 117, 84, 39, 63, 185, 477, 804, 947]"
1713644577758443123,"[569, -188, -338, 77, 119, -39, 30, 84, 35, 68, 110, 65, 68, 131, 119, 94, 131, 148, 122, 129, 192, 232, 237, 263, 261, 268, 329, 373, 397, 388, 329, 282, 270, 202, 65, -4, 11, 7, -68, -141, -110, -51, -87, -136, -103, -58, -65, -84, -77, -89, -91, -77, -98, -127, -61, -16, -72, -61, -7, 7, -14, -79, -68, 54, 58, -65, -35, 61, -58, -145, -2, 51, 21]"
1713644578319572502,"[72, 56, 9, 56, 61, 11, 16, 25, 4, 0, -14, 7, 82, 82, 159, 251, 141, 122, 124, -4, 112, 468, 834, 1119, 844, 49, -218, 82, 115, -2, 0, -28, -23, 30, 30, 42, 51, 35, 49, 72, 101, 117, 119, 131, 110, 108, 169, 211, 216, 239, 275, 296, 338, 397, 341, 211, 185, 176, 101, 25, 0, 2, -28, -32, -14, -39, -39, -14, -18, -4, 11, 0, 18]"
1713644578880701881,"[54, 58, 18, 7, 70, 75, 49, 65, 61, 49, 49, 35, 0, -28, 9, 30, -25, -75, -58, -16, -32, -72, -21, 32, -11, -39, 0, 7, -14, -7, -23, -58, -28, 11, -9, 9, 68, 72, 7, -49, 4, 61, 185, 635, 1086, 999, 251, -373, -127, 169, -23, -89, 49, 49, -11, 18, 54, 61, 105, 115, 58, 89, 181, 141, 68, 136, 202, 171, 197, 265, 275, 284, 319]"
1713644579441846521,"[348, 383, 359, 286, 265, 228, 112, 16, -37, -87, -110, -98, -105, -145, -138, -89, -68, -103, -138, -110, -91, -91, -58, -68, -79, -58, -68, -70, -23, 7, -16, -7, 32, 18, -2, 11, 30, 49, 37, -14, -4, 58, 51, 2, -2, 18, 18, 0, -23, -37, -28, -35, -37, -11, -23, -28, 21, 32, -18, 61, 460, 907, 938, 378, -319, -326, 68, 68, -16, 108, 82, -61, -35]"
1713644580002991157,"[70, 65, -2, 4, 84, 101, 42, 47, 134, 166, 138, 145, 185, 336, 397, 164, 150, 411, 392, 319, 404, 352, 197, 51, -23, -4, 4, 21, 0, -68, -103, -119, -96, -32, -16, -42, -25, 28, 51, 2, -28, 18, 25, 4, 14, 39, 131, 190, 61, -30, 105, 105, -65, -4, 122, 79, 58, 119, 145, 124, 119, 112, 47, -4, 21, 32, 7, 30, 49, 7, 4, 37, 21]"
1713644580564120536,"[-11, -14, 119, 491, 940, 1006, 301, -409, -218, 42, -150, -145, -14, -77, -110, -35, -21, -42, -7, 23, 11, 14, 32, 51, 72, 94, 124, 143, 159, 197, 237, 275, 305, 319, 336, 333, 315, 270, 192, 117, 56, 7, -18, -35, -44, -47, -49, -37, -32, -23, -18, -16, -9, -21, -21, 0, 0, 4, 16, 14, 21, 25, 28, 32, 35, 39, 44, 49, 42, 16, 21, 37, 37]"
1713644581125280437,"[39, 39, 54, 77, 84, 87, 58, 21, 28, 39, 35, 37, 32, 35, 42, 37, 30, 21, 23, 211, 707, 1211, 1055, 129, -420, -75, 89, -136, -108, 0, -51, -56, -2, 0, -7, 11, 25, 32, 51, 72, 75, 89, 110, 122, 138, 157, 188, 223, 249, 277, 303, 312, 303, 270, 225, 166, 98, 47, 0, -30, -42, -65, -79, -77, -70, -61, -51, -35, -25, -23, -14, -11, -2]"
1713644581686409816,"[14, 21, 18, -7, -32, -16, -2, 4, 9, 4, 7, 16, 28, 35, 32, 35, 37, 49, 61, 63, 75, 87, 94, 101, 82, 65, 65, 56, 58, 70, 75, 79, 77, 77, 68, 44, 94, 397, 921, 1222, 754, -134, -296, 101, 54, -143, -39, 9, -56, -28, 0, -23, -7, 11, -7, -11, 9, 23, 30, 58, 84, 101, 122, 145, 181, 218, 237, 246, 249, 254, 256, 228, 176]"
1713644582247549369,"[110, 44, -2, -32, -44, -51, -61, -58, -61, -49, -30, -25, -28, -39, -37, -16, -7, 4, 9, 4, 14, 21, 28, 37, 32, 28, 18, 14, 32, 35, 32, 37, 37, 49, 54, 61, 63, 58, 77, 98, 108, 105, 82, 63, 63, 63, 51, 28, 28, 44, 44, 51, 56, 42, 110, 439, 947, 1161, 606, -239, -289, 101, 23, -119, 0, 21, -51, -25, -2, -28, -37, -2, 51]"
1713644582808699092,"[47, 18, 42, 65, 77, 91, 108, 141, 174, 185, 190, 216, 244, 254, 256, 251, 214, 148, 75, 16, -21, -51, -70, -77, -75, -70, -65, -61, -54, -42, -30, -28, -21, -11, -4, 4, 14, 14, 9, -4, -7, 9, 14, 7, 14, 21, 21, 32, 44, 23, 7, 16, 25, 35, 58, 77, 72, 49, 37, 37, 37, 39, 42, 44, 51, 63, 63, 61, 58, 91, 345, 844, 1173]"
1713644583369828471,"[794, -75, -329, 77, 122, -82, -11, 54, -18, -21, 25, 11, -14, -23, -21, 0, 18, 25, 30, 51, 77, 98, 127, 155, 171, 181, 199, 228, 251, 265, 258, 223, 150, 51, -49, -110, -68, -30, -84, -115, -108, -82, -56, -96, -117, -77, -42, -23, -16, -51, -110, -89, 14, 11, -35, 39, 103, 72, 65, 70, 35, 28, 47, 56, 54, 44, 75, 91, 72, 98, 115, 58, 25]"
1713644583930957850,"[44, 61, 82, 79, 39, 37, 89, 87, 30, 18, 185, 658, 1164, 1053, 204, -296, 14, 143, -87, -51, 91, 35, -4, 42, 32, 0, -18, 18, 72, 23, -7, 28, 28, 18, 44, 84, 131, 185, 202, 192, 216, 242, 221, 218, 263, 225, 84, 9, -9, -51, -77, -72, -56, -47, -61, -61, -18, -14, -39, -23, -4, -7, 4, 4, -9, -2, 0, -9, 14, 56, 61, 37, 44]"
1713644584492117747,"[56, 44, 44, 58, 63, 54, 47, 44, 58, 89, 82, 47, 35, 35, 39, 47, 37, 18, 2, 11, 25, 14, -11, 101, 505, 997, 1041, 341, -338, -159, 136, -39, -105, 18, 14, -14, 16, 4, -7, 28, 49, 54, 58, 56, 65, 77, 75, 84, 108, 129, 152, 181, 214, 251, 254, 235, 232, 228, 188, 117, 51, 9, -21, -44, -65, -75, -72, -61, -42, -39, -51, -42, -11]"
1713644585053252217,"[2, 0, 4, 7, 0, -14, -7, 0, -4, 9, 9, -25, -23, -7, -23, -25, -4, -2, -4, 11, 47, 70, 63, 39, 32, 39, 39, 35, 37, 49, 56, 65, 65, 51, 68, 282, 759, 1159, 924, 70, -331, 42, 164, -47, -4, 75, 11, 14, 68, 63, 58, 75, 79, 89, 101, 101, 105, 115, 127, 143, 155, 171, 188, 195, 209, 235, 249, 251, 242, 202, 145, 89, 37]"
1713644585614407027,"[-4, -42, -87, -117, -117, -117, -112, -112, -124, -117, -91, -77, -68, -58, -56, -47, -30, -21, -14, -11, -14, -4, 7, 14, 16, 14, 14, 37, 51, 47, 56, 75, 82, 84, 75, 54, 37, 23, 21, 32, 39, 44, 51, 49, 42, 39, 115, 449, 959, 1152, 569, -242, -225, 157, 44, -94, 23, 47, 4, 44, 63, 42, 54, 77, 87, 96, 110, 101, 72, 75, 110, 138, 145]"
1713644586175551667,"[157, 185, 214, 232, 242, 242, 230, 199, 145, 91, 28, -44, -89, -108, -119, -124, -119, -119, -117, -103, -82, -63, -49, -44, -42, -37, -30, -30, -39, -42, -30, -21, -9, -2, -2, 2, 11, 18, 25, 35, 44, 58, 72, 61, 39, 37, 39, 42, 47, 47, 49, 58, 61, 61, 54, 82, 352, 877, 1201, 764, -148, -357, 79, 91, -110, -9, 61, -2, 18, 61, 47, 54, 79]"
1713644586736696303,"[79, 89, 108, 115, 129, 150, 162, 176, 183, 199, 235, 268, 282, 291, 293, 279, 256, 206, 127, 44, -18, -61, -94, -117, -129, -124, -119, -115, -101, -91, -89, -82, -72, -58, -47, -37, -35, -30, -25, -16, -7, -2, -4, -4, 4, 21, 28, 32, 35, 42, 51, 39, 0, -32, -35, -23, -14, -4, 2, 9, 16, 16, 11, 16, 183, 656, 1164, 1070, 195, -390, -49, 169, -70]"
1713644587297825682,"[-72, 63, 30, 9, 56, 32, 4, 44, 75, 63, 58, 65, 79, 103, 127, 152, 169, 181, 218, 265, 291, 308, 312, 301, 293, 256, 185, 117, 39, -25, -35, -25, -47, -72, -75, -77, -84, -79, -68, -58, -56, -65, -68, -56, -47, -56, -82, -79, -54, -44, -42, -35, -37, -37, -18, -9, -2, 18, 32, 25, 37, 63, 56, 37, 42, 32, 18, 42, 63, 49, 42, 54, 56]"
1713644587858985579,"[32, 44, 289, 823, 1239, 893, -42, -333, 68, 75, -129, -30, 47, -11, 2, 39, 30, 42, 70, 75, 77, 89, 98, 112, 134, 155, 169, 188, 218, 249, 275, 298, 312, 308, 296, 277, 237, 171, 94, 16, -30, -44, -61, -75, -70, -65, -70, -70, -63, -68, -75, -68, -61, -54, -39, -39, -39, -30, -25, -23, -14, -11, -9, 0, -4, -14, -7, 2, 4, 11, 16, 28, 51]"
1713644588420120049,"[68, 68, 56, 37, 30, 25, 9, 9, 23, 25, 30, 35, 28, 18, 108, 482, 1032, 1194, 519, -277, -174, 166, 11, -84, 32, 30, -9, 30, 49, 39, 54, 58, 42, 44, 68, 79, 87, 112, 145, 162, 178, 209, 242, 270, 289, 301, 305, 296, 263, 211, 148, 87, 35, -7, -30, -37, -56, -72, -75, -72, -70, -68, -63, -61, -56, -49, -42, -30, -21, -28, -28, -16, -9]"
1713644588981274859,"[-7, 2, 4, -2, 2, 11, 21, 23, 11, -11, -18, -2, 11, 16, 21, 14, 16, 44, 68, 68, 51, 25, 23, 39, 32, 4, -4, 9, 21, 30, 32, 21, 94, 449, 980, 1159, 543, -254, -202, 150, 25, -75, 49, 51, -2, 37, 63, 39, 47, 68, 65, 72, 98, 112, 127, 141, 150, 174, 206, 232, 261, 282, 286, 305, 317, 293, 263, 216, 134, 65, 21, -18, -51]"
1713644589542434756,"[-77, -89, -84, -72, -63, -58, -68, -75, -61, -42, -37, -42, -54, -56, -39, -25, -25, -32, -47, -47, -28, -18, -14, -9, -11, -9, 0, 16, 25, 23, 23, 30, 37, 44, 49, 51, 49, 49, 47, 44, 51, 68, 82, 94, 94, 79, 63, 56, 58, 65, 72, 75, 77, 79, 70, 63, 115, 390, 886, 1204, 787, -87, -268, 136, 117, -63, 32, 82, 25, 44, 70, 54, 54]"
1713644590103564135,"[63, 68, 75, 82, 94, 98, 96, 110, 131, 134, 131, 155, 188, 214, 228, 221, 211, 204, 162, 91, 35, -9, -49, -75, -84, -87, -84, -79, -70, -72, -77, -65, -54, -47, -35, -25, -18, -7, -2, 4, 21, 23, 18, 28, 35, 23, 28, 56, 51, 35, 58, 72, 47, 25, 44, 77, 65, 11, 25, 134, 148, 44, 39, 108, 117, 112, 124, 96, 54, 35, 54, 105, 75]"
1713644590664718949,"[-7, 11, 28, 25, 129, 157, 218, 646, 1119, 912, 30, -383, -11, 101, -112, -63, 18, -51, -58, -7, -18, -30, -2, 7, 2, 21, 54, 68, 77, 96, 117, 145, 183, 218, 244, 265, 289, 305, 310, 296, 242, 164, 91, 42, 4, -23, -39, -58, -63, -42, -28, -32, -42, -54, -47, -25, -14, -2, 9, 7, 14, 30, 39, 47, 51, 44, 44, 47, 25, 9, 21, 18, 9]"
1713644591225883933,"[25, 51, 54, 44, 39, 47, 58, 65, 65, 54, 28, 21, 37, 47, 47, 49, 58, 82, 94, 72, 44, 30, 28, 35, 35, 28, 21, 18, 11, 4, 18, 199, 670, 1143, 1006, 134, -406, -63, 134, -91, -84, 35, -4, -30, 4, 4, 0, 25, 44, 51, 58, 72, 89, 108, 124, 150, 174, 197, 225, 258, 272, 275, 289, 301, 282, 242, 185, 117, 54, 7, -28, -42, -42]"
1713644591787013312,"[-44, -47, -56, -58, -44, -30, -35, -47, -42, -25, -14, -4, 4, 18, 23, 25, 37, 47, 44, 47, 51, 49, 51, 58, 58, 56, 61, 63, 68, 70, 68, 65, 61, 51, 42, 35, 30, 30, 23, 16, 14, 11, 11, 14, 21, 23, 25, 35, 39, 37, 47, 61, 56, 37, 32, 30, 14, 11, 25, 28, 28, 39, 47, 49, 49, 39, 122, 493, 1046, 1225, 555, -270, -188]"
1713644592348173209,"[164, 11, -89, 39, 39, -7, 42, 65, 44, 54, 63, 56, 72, 94, 101, 112, 129, 150, 174, 199, 225, 251, 279, 308, 331, 333, 312, 286, 244, 181, 115, 63, 21, -11, -25, -23, -21, -18, -18, -16, -7, 2, 11, 18, 18, 7, -4, 4, 23, 25, 11, 4, 11, 21, 23, 21, 11, -2, -18, -23, -11, -9, -18, -16, -7, 2, 7, 9, 7, 7, 18, 28, 32]"
1713644592909302588,"[32, 30, 32, 42, 49, 54, 51, 35, 21, 37, 51, 51, 51, 49, 49, 58, 58, 47, 47, 49, 51, 63, 75, 79, 79, 84, 105, 122, 112, 94, 84, 75, 75, 84, 91, 96, 91, 75, 54, 37, 138, 519, 1046, 1194, 538, -251, -159, 181, 18, -94, 32, 42, 0, 39, 54, 42, 61, 82, 87, 96, 103, 108, 124, 148, 164, 183, 199, 223, 256, 289, 315, 331, 336]"
1713644593470452315,"[333, 317, 265, 195, 127, 63, 4, -44, -79, -101, -129, -141, -129, -117, -108, -96, -91, -91, -82, -68, -51, -47, -44, -35, -25, -18, -9, -2, -2, -2, -18, -35, -23, -9, -11, -9, 0, 7, 14, 21, 11, 7, 16, 25, 30, 35, 37, 39, 44, 49, 56, 58, 61, 63, 65, 70, 75, 75, 79, 82, 82, 87, 91, 89, 89, 94, 96, 103, 105, 101, 103, 115, 110]"
1713644594031591864,"[108, 101, 82, 70, 70, 68, 72, 65, 47, 51, 63, 49, 51, 216, 660, 1140, 1063, 235, -333, -35, 162, -42, -44, 30, -42, -58, -2, 0, -9, 0, -4, -16, -11, 7, 18, 28, 47, 68, 89, 119, 150, 176, 206, 235, 254, 270, 272, 246, 195, 134, 75, 25, -16, -49, -65, -65, -61, -56, -49, -47, -42, -37, -35, -37, -32, -21, -18, -14, 4, 16, 21, 21, 23]"
1713644594592751761,"[30, 39, 42, 42, 28, 9, 14, 28, 35, 35, 32, 30, 37, 47, 51, 49, 16, 0, 21, 35, 32, 32, 25, 23, 37, 49, 51, 51, 49, 51, 63, 72, 72, 68, 65, 68, 77, 84, 89, 89, 79, 79, 91, 98, 98, 96, 91, 91, 96, 89, 91, 105, 103, 84, 58, 35, 21, 7, -4, 4, 16, 21, 23, 14, -4, 72, 425, 943, 1140, 566, -256, -256, 122]"
1713644595153911662,"[21, -105, 7, 16, -28, 16, 44, 35, 32, 21, 25, 51, 63, 47, 32, 49, 84, 108, 131, 159, 183, 214, 254, 282, 301, 308, 296, 261, 209, 148, 84, 25, -16, -35, -44, -49, -51, -47, -39, -30, -28, -21, -11, -9, -11, -9, -9, 2, 14, 18, 18, 25, 37, 47, 47, 42, 44, 44, 42, 49, 58, 58, 56, 56, 63, 68, 72, 72, 72, 68, 70, 75, 72]"
1713644595715041041,"[68, 49, 32, 37, 35, 21, 25, 37, 37, 42, 42, 18, 2, 14, 23, 21, 21, 25, 35, 37, 16, 0, -9, -11, -2, 4, 2, 7, 14, 14, 14, 25, 178, 627, 1107, 1025, 197, -409, -119, 119, -84, -91, 32, -4, -32, 21, 28, 21, 44, 58, 58, 72, 89, 98, 112, 134, 150, 169, 195, 228, 263, 293, 319, 336, 343, 343, 319, 239, 124, 49, 7, -39, -68]"
1713644596276216198,"[-75, -87, -91, -87, -75, -61, -56, -61, -68, -70, -51, -32, -25, -23, -18, -7, 9, 18, 21, 21, 21, 25, 35, 44, 44, 37, 32, 25, 23, 30, 39, 35, 32, 39, 49, 54, 54, 49, 54, 61, 65, 70, 75, 65, 63, 72, 77, 79, 82, 79, 75, 79, 87, 91, 91, 84, 82, 89, 91, 79, 49, 21, 11, 0, -18, -16, -21, -37, -28, -11, -9, -7, -18]"
1713644596837330317,"[11, 286, 811, 1168, 792, -112, -371, 37, 61, -129, -39, 4, -77, -51, 9, 0, 2, 28, 23, 18, 44, 65, 72, 77, 94, 117, 148, 178, 206, 232, 256, 289, 310, 319, 315, 277, 218, 157, 94, 42, 2, -28, -47, -47, -39, -35, -32, -32, -30, -25, -21, -21, -28, -44, -44, -23, -9, -4, 2, 7, 9, 21, 28, 32, 30, 32, 35, 37, 44, 47, 47, 49, 54]"
1713644597398490214,"[56, 61, 65, 61, 58, 61, 65, 72, 75, 68, 56, 58, 68, 65, 51, 44, 49, 51, 51, 61, 65, 65, 70, 70, 72, 77, 75, 75, 77, 77, 79, 75, 63, 70, 94, 96, 82, 61, 35, 14, 9, 4, -7, -4, -2, -21, -39, -44, -21, 190, 672, 1107, 903, 35, -397, -35, 82, -119, -72, 16, -30, -30, 14, 16, 18, 37, 49, 51, 65, 84, 96, 105, 119]"
1713644597959650115,"[136, 150, 174, 206, 232, 251, 263, 275, 296, 298, 272, 225, 159, 94, 44, 2, -32, -49, -54, -49, -42, -39, -37, -32, -23, -14, -2, 0, 0, 7, 16, 28, 25, 14, 11, 18, 23, 25, 14, -4, -2, 7, 9, 16, 25, 30, 28, 28, 32, 37, 47, 51, 47, 47, 54, 61, 65, 63, 58, 63, 75, 79, 77, 77, 70, 61, 63, 72, 75, 72, 70, 75, 82]"
1713644598520779494,"[89, 94, 82, 63, 70, 98, 105, 89, 68, 56, 47, 37, 42, 54, 51, 32, 28, 25, 18, 169, 611, 1074, 990, 176, -416, -122, 105, -112, -124, 7, -21, -61, -47, -44, -32, -7, 7, 16, 28, 39, 56, 72, 91, 115, 134, 155, 192, 235, 270, 298, 315, 324, 326, 308, 256, 185, 101, 32, -7, -30, -49, -56, -65, -65, -56, -44, -35, -30, -30, -32, -16, 4, 9]"
1713644599081939391,"[11, 16, 21, 28, 42, 51, 49, 44, 47, 51, 56, 54, 35, 16, 16, 11, 16, 25, 23, 21, 30, 32, 37, 35, 18, 11, 23, 32, 42, 44, 42, 61, 82, 89, 87, 68, 47, 49, 56, 56, 58, 63, 68, 70, 72, 65, 101, 366, 879, 1197, 750, -155, -343, 75, 68, -127, -44, 7, -56, -44, -2, -11, -11, 11, 18, 21, 39, 54, 61, 75, 101, 119, 143]"
1713644599643068770,"[176, 211, 244, 272, 296, 310, 301, 270, 228, 150, 56, -2, -42, -79, -98, -105, -124, -141, -134, -119, -110, -103, -94, -77, -68, -58, -49, -39, -25, -9, 2, 4, 9, 18, 28, 35, 35, 28, 14, 11, 23, 30, 32, 35, 35, 37, 47, 54, 51, 49, 49, 54, 61, 70, 70, 65, 68, 70, 75, 82, 84, 79, 82, 91, 96, 98, 103, 112, 119, 119, 103, 82, 70]"
1713644600204228667,"[63, 63, 70, 77, 82, 82, 68, 49, 39, 75, 336, 870, 1225, 794, -124, -331, 84, 70, -129, -44, 18, -32, -11, 18, -7, -9, 11, 11, 7, 9, 7, 23, 49, 68, 89, 112, 134, 166, 209, 242, 270, 284, 286, 277, 249, 188, 117, 49, -7, -37, -51, -58, -58, -61, -63, -51, -37, -28, -18, -18, -28, -32, -21, -7, 0, 0, 4, 16, 28, 35, 37, 35, 35]"
1713644600765383481,"[44, 51, 42, 16, 4, 11, 21, 28, 35, 28, 9, 9, 23, 32, 37, 39, 37, 37, 47, 49, 39, 35, 39, 44, 49, 58, 65, 65, 63, 65, 72, 77, 79, 77, 75, 79, 84, 91, 94, 89, 87, 89, 96, 103, 108, 105, 103, 112, 131, 143, 136, 110, 79, 63, 72, 79, 77, 77, 82, 84, 84, 72, 87, 312, 816, 1237, 978, 70, -343, 9, 89, -122, -72]"
1713644601326517943,"[2, -61, -68, -23, -28, -30, -14, -23, -23, -2, 4, 2, 14, 37, 58, 84, 112, 143, 178, 206, 237, 258, 268, 270, 249, 197, 134, 72, 16, -21, -44, -58, -61, -58, -54, -49, -44, -37, -23, -16, -11, -4, 2, -2, -2, 11, 16, 18, 25, 32, 37, 42, 44, 47, 49, 51, 58, 61, 58, 58, 58, 54, 35, 28, 35, 39, 37, 49, 58, 56, 56, 56, 61]"
1713644601887677844,"[68, 68, 56, 39, 28, 25, 37, 49, 51, 49, 47, 51, 65, 70, 72, 68, 65, 72, 82, 84, 84, 79, 77, 82, 89, 96, 96, 91, 91, 96, 105, 127, 141, 131, 98, 77, 72, 68, 61, 56, 54, 56, 54, 47, 28, 18, 202, 679, 1140, 1013, 166, -388, -70, 122, -108, -119, -14, -54, -65, -11, -4, -7, 11, 21, 30, 51, 51, 51, 68, 82, 98, 131, 162]"
1713644602448817397,"[192, 223, 254, 279, 305, 322, 326, 301, 246, 185, 122, 65, 14, -37, -72, -72, -63, -58, -54, -54, -49, -35, -21, -14, -11, -16, -18, -2, 11, 16, 21, 28, 30, 35, 47, 51, 56, 58, 49, 54, 63, 65, 65, 61, 58, 65, 77, 63, 32, 30, 42, 42, 47, 56, 58, 58, 58, 51, 47, 49, 51, 56, 61, 61, 58, 54, 54, 58, 61, 58, 65, 77, 65]"
1713644603009967120,"[32, 16, 18, 16, 11, 16, 21, 21, 28, 32, 14, 0, 152, 602, 1103, 1095, 296, -399, -159, 136, -58, -101, 23, -2, -28, 25, 35, 25, 47, 63, 65, 77, 96, 105, 112, 136, 155, 171, 202, 235, 246, 265, 308, 336, 341, 338, 312, 249, 157, 72, 14, -28, -56, -68, -75, -77, -72, -68, -58, -47, -42, -39, -28, -16, -14, -4, 7, 11, 18, 28, 35, 39, 47]"
1713644603571096499,"[51, 51, 49, 51, 61, 61, 54, 47, 44, 49, 56, 58, 54, 42, 28, 37, 49, 51, 47, 49, 51, 56, 63, 65, 63, 63, 65, 63, 56, 54, 58, 56, 39, 11, 7, 23, 21, 7, -2, -23, -39, -32, -28, -32, -21, -4, 4, 4, -7, 0, 197, 693, 1180, 1051, 162, -404, -63, 129, -94, -79, 30, -18, -23, 32, 32, 25, 39, 49, 61, 79, 91, 87, 82]"
1713644604132251313,"[101, 129, 152, 181, 204, 214, 239, 284, 312, 324, 319, 282, 223, 159, 94, 35, -11, -49, -61, -56, -54, -49, -49, -49, -39, -37, -56, -58, -44, -44, -47, -39, -28, -16, -11, -9, 2, 16, 23, 28, 28, 25, 32, 42, 44, 47, 44, 42, 49, 61, 65, 65, 61, 61, 68, 72, 77, 79, 72, 72, 79, 84, 75, 61, 58, 63, 68, 75, 79, 79, 75, 77, 84]"
1713644604693385775,"[89, 89, 89, 87, 87, 89, 94, 82, 54, 42, 51, 58, 56, 47, 35, 32, 39, 47, 25, -2, -14, -28, -44, -35, -18, -16, -14, -4, 0, -4, -4, 138, 580, 1114, 1143, 352, -348, -127, 136, -65, -101, 25, -2, -32, 16, 30, 21, 39, 56, 56, 72, 89, 91, 96, 103, 112, 138, 171, 195, 228, 263, 289, 310, 324, 322, 315, 277, 206, 136, 82, 35, 7, -7]"
1713644605254545676,"[-25, -23, -14, -16, -18, -25, -32, -16, -2, -9, -21, -37, -44, -35, -28, -21, -11, -7, 0, 16, 23, 18, 21, 30, 35, 37, 44, 47, 39, 42, 51, 63, 68, 61, 58, 65, 70, 68, 77, 82, 75, 72, 84, 87, 79, 61, 49, 68, 84, 72, 68, 84, 87, 84, 94, 98, 91, 89, 89, 94, 96, 98, 98, 84, 79, 84, 82, 87, 91, 72, 63, 82, 82]"
1713644605815675055,"[58, 39, 21, -4, -23, -21, -11, -9, -25, -37, -23, -11, 56, 383, 877, 1081, 562, -254, -298, 94, 11, -136, -4, 44, -11, 4, 23, 11, 35, 65, 72, 75, 75, 96, 124, 127, 127, 141, 155, 188, 228, 261, 291, 310, 315, 322, 317, 284, 228, 150, 77, 32, 4, -16, -28, -42, -49, -37, -32, -30, -25, -28, -28, -14, 2, 7, 14, 18, -7, -32, -16, 4, 2]"
1713644606376834952,"[-2, 4, 14, 23, 25, 25, 28, 25, 25, 35, 44, 28, 9, 14, 25, 30, 32, 32, 32, 35, 42, 49, 54, 54, 49, 51, 54, 47, 39, 35, 23, 16, 30, 42, 37, 25, 16, 21, 30, 37, 37, 18, 2, -4, 0, 9, 9, 9, 11, 14, 23, 25, 25, 183, 635, 1117, 1072, 277, -373, -127, 124, -96, -141, -9, -32, -63, -11, 0, -4, 18, 35, 39, 51]"
1713644606937964331,"[68, 84, 98, 112, 136, 157, 183, 221, 244, 256, 284, 312, 324, 326, 303, 244, 178, 108, 28, -28, -54, -68, -70, -70, -70, -63, -54, -44, -35, -30, -28, -16, -7, 0, 11, 23, 28, 30, 37, 44, 54, 58, 56, 54, 54, 58, 65, 68, 65, 63, 56, 54, 65, 65, 44, 16, 16, 32, 37, 39, 44, 44, 47, 58, 65, 63, 63, 70, 79, 84, 82, 65, 39]"
1713644607499119145,"[23, 18, 18, 14, 14, 7, -14, -18, -18, -25, 127, 587, 1088, 1048, 228, -413, -141, 101, -112, -127, 7, -23, -49, -7, 2, 2, 25, 44, 49, 56, 68, 82, 103, 122, 138, 150, 174, 214, 254, 282, 305, 317, 319, 319, 293, 239, 157, 61, 4, -16, -47, -70, -72, -79, -77, -61, -49, -42, -37, -39, -30, -16, -7, 0, 4, 4, 11, 23, 30, 35, 35, 30, 30]"
1713644608060253607,"[28, 23, 28, 25, 16, 25, 39, 42, 37, 18, 4, 18, 32, 35, 37, 37, 35, 42, 51, 56, 56, 54, 56, 61, 70, 72, 72, 68, 68, 75, 79, 79, 72, 65, 70, 77, 82, 84, 91, 91, 82, 87, 84, 51, 28, 39, 47, 49, 51, 47, 39, 42, 37, 21, 101, 477, 1034, 1220, 559, -296, -256, 98, -47, -162, -49, -49, -84, -39, -21, -32, -14, 7, 14]"
1713644608621413508,"[25, 39, 54, 63, 79, 103, 110, 108, 141, 181, 209, 242, 268, 279, 289, 279, 244, 188, 119, 58, 11, -23, -47, -68, -84, -77, -63, -63, -54, -39, -35, -25, -28, -49, -49, -28, -23, -16, -2, 2, 9, 16, 16, 23, 32, 35, 35, 39, 42, 49, 49, 47, 51, 56, 51, 47, 39, 39, 49, 49, 51, 61, 63, 63, 65, 68, 70, 77, 79, 77, 77, 79, 82]"
1713644609182542887,"[89, 91, 87, 87, 89, 91, 96, 96, 91, 75, 63, 68, 79, 75, 56, 47, 54, 65, 75, 77, 72, 79, 98, 112, 98, 58, 30, 28, 32, 37, 35, 30, 25, 28, 30, 14, 21, 230, 710, 1138, 940, 70, -385, -42, 72, -148, -112, -23, -68, -65, -28, -32, -23, 4, 16, 23, 30, 39, 58, 82, 98, 115, 127, 152, 190, 225, 256, 277, 289, 301, 310, 291, 242]"
1713644609743702784,"[178, 108, 51, 16, -11, -39, -65, -75, -61, -49, -42, -32, -37, -56, -49, -23, -16, -21, -42, -54, -32, -14, -7, 0, 0, 0, 14, 25, 30, 32, 30, 28, 35, 44, 51, 54, 44, 30, 25, 39, 47, 44, 44, 44, 47, 56, 63, 65, 63, 65, 72, 79, 84, 82, 77, 77, 82, 89, 94, 89, 84, 87, 94, 98, 98, 101, 101, 98, 103, 103, 98, 96, 84]"
1713644610304832163,"[63, 54, 49, 39, 28, 23, 16, 16, 21, 23, 2, -9, 192, 698, 1140, 926, 39, -432, -75, 72, -136, -101, -2, -49, -51, 0, 4, 7, 21, 21, 28, 51, 63, 65, 82, 108, 124, 145, 178, 209, 244, 279, 301, 322, 343, 341, 310, 261, 192, 124, 65, 14, -18, -35, -44, -44, -39, -37, -32, -25, -30, -37, -28, -21, -16, -7, 2, 9, 18, 23, 30, 37, 37]"
1713644610865961542,"[39, 44, 39, 18, 2, 9, 11, -2, -7, 4, 14, 11, 18, 25, 25, 30, 37, 42, 47, 39, 30, 39, 49, 47, 47, 49, 56, 63, 54, 39, 49, 63, 70, 70, 54, 25, -2, -9, 2, 11, 14, 11, 9, 16, 25, 21, 37, 254, 750, 1182, 964, 63, -406, -39, 96, -122, -77, 28, -21, -32, 9, 11, 16, 47, 56, 54, 63, 82, 94, 89, 82, 101, 131]"
1713644611427121443,"[164, 199, 237, 265, 270, 275, 296, 301, 270, 214, 131, 49, -2, -35, -56, -75, -89, -89, -75, -65, -54, -51, -51, -42, -23, -16, -7, 0, -2, 4, 23, 35, 39, 37, 32, 37, 49, 54, 54, 51, 44, 47, 49, 37, 37, 42, 37, 39, 51, 56, 58, 56, 54, 58, 68, 72, 72, 68, 63, 70, 77, 77, 54, 30, 32, 47, 51, 56, 58, 54, 54, 58, 56]"
1713644611988250822,"[51, 47, 35, 32, 49, 56, 42, 2, -44, -49, -32, -28, -25, -21, -21, -16, -7, -2, -14, 58, 411, 968, 1215, 639, -237, -272, 105, 0, -131, -4, 16, -37, -2, 16, -7, 7, 32, 35, 42, 58, 75, 91, 105, 119, 141, 164, 192, 228, 258, 282, 305, 319, 326, 324, 286, 206, 115, 54, 14, -23, -49, -58, -58, -58, -54, -49, -54, -44, -30, -25, -18, -7, -2]"
1713644612549390375,"[4, 14, 18, 23, 30, 32, 37, 42, 42, 44, 35, 21, 25, 37, 32, 32, 39, 39, 47, 51, 51, 54, 56, 56, 54, 42, 37, 44, 49, 49, 58, 61, 58, 61, 63, 65, 72, 77, 75, 75, 77, 79, 84, 87, 84, 82, 84, 82, 68, 47, 49, 56, 54, 58, 61, 49, 37, 28, 23, 32, 42, 44, 37, 11, -7, -7, -7, -4, -7, -7, -2, 9, 18]"
1713644613110540098,"[16, 0, 35, 322, 856, 1218, 837, -87, -364, 30, 49, -136, -49, 7, -54, -35, -2, -14, -4, 14, 14, 30, 56, 70, 79, 89, 105, 131, 159, 185, 211, 235, 265, 298, 319, 329, 324, 291, 242, 183, 119, 49, -21, -58, -63, -63, -61, -58, -70, -77, -61, -42, -35, -23, -18, -21, -9, 7, 14, 21, 23, 21, 28, 39, 47, 51, 47, 42, 49, 58, 63, 65, 61]"
1713644613671669477,"[56, 63, 72, 75, 75, 70, 58, 49, 51, 61, 54, 32, 25, 39, 49, 51, 56, 51, 49, 58, 68, 70, 72, 68, 68, 75, 84, 84, 82, 75, 63, 63, 72, 75, 58, 25, 14, 16, 7, -9, -11, -9, -7, 2, 9, 7, 14, 32, 49, 51, 44, 28, 16, 14, 21, 30, 35, 35, 37, 44, 44, 35, 96, 409, 928, 1220, 754, -127, -270, 119, 65, -115, -21]"
1713644614232824291,"[28, -18, 2, 32, 25, 32, 54, 58, 49, 49, 68, 82, 96, 117, 138, 157, 183, 214, 251, 284, 303, 322, 331, 326, 305, 254, 174, 87, 14, -35, -68, -91, -98, -89, -84, -79, -70, -58, -51, -39, -30, -23, -14, -9, -4, 9, 21, 18, 18, 28, 37, 42, 49, 49, 47, 47, 54, 58, 54, 54, 61, 58, 42, 44, 47, 35, 30, 32, 32, 32, 30, 21, 9]"
1713644614793958753,"[2, 9, 18, 16, 11, -2, -14, -7, 9, 11, 9, 11, 14, 23, 30, 37, 39, 39, 49, 63, 56, 25, 4, -4, -7, 0, 14, 18, 14, 11, 25, 42, 44, 35, 103, 456, 1004, 1222, 642, -218, -258, 129, 47, -82, 35, 56, -2, 28, 63, 54, 65, 91, 89, 79, 89, 105, 124, 134, 143, 164, 192, 223, 261, 293, 315, 333, 355, 366, 355, 310, 230, 155, 96]"
1713644615355093223,"[47, 7, -25, -47, -49, -42, -37, -35, -47, -61, -51, -37, -58, -87, -87, -72, -63, -47, -28, -18, -18, -16, -7, 7, 14, 18, 16, 14, 21, 30, 35, 37, 37, 32, 39, 51, 56, 42, 28, 32, 42, 42, 37, 30, 11, -11, -9, 4, 7, 2, 2, 4, 9, 16, 21, 23, 21, 23, 30, 42, 49, 49, 44, 54, 79, 94, 91, 72, 56, 49, 51, 58, 63]"
1713644615916248033,"[61, 63, 63, 56, 39, 7, 75, 456, 1018, 1220, 587, -282, -279, 96, -23, -141, -11, 0, -51, -9, 21, 11, 28, 47, 49, 61, 75, 87, 103, 117, 134, 155, 176, 206, 242, 265, 284, 312, 331, 333, 324, 286, 221, 150, 84, 32, -2, -28, -37, -37, -37, -35, -30, -25, -18, -9, -7, 0, 7, 9, 18, 25, 28, 32, 39, 42, 44, 39, 25, 30, 32, 11, -4]"
1713644616477377412,"[4, 14, 9, 14, 21, 28, 32, 30, 25, 14, 14, 28, 32, 30, 32, 37, 42, 49, 54, 49, 42, 37, 42, 51, 51, 39, 21, 9, 7, 4, 7, 7, 4, 9, 16, 23, 25, 23, 23, 30, 37, 44, 44, 42, 42, 49, 61, 68, 68, 65, 75, 96, 110, 105, 89, 70, 58, 63, 63, 51, 54, 56, 51, 58, 42, 9, 117, 524, 1051, 1180, 498, -286, -181]"
1713644617038527139,"[141, -23, -101, 30, 28, -21, -7, 0, 4, 28, 42, 47, 51, 63, 84, 101, 115, 124, 129, 155, 195, 225, 258, 286, 301, 317, 333, 326, 291, 228, 150, 89, 47, 9, -14, -30, -42, -37, -28, -21, -14, -14, -14, -2, 9, 16, 21, 21, 18, 18, 16, 21, 30, 28, 25, 35, 35, 14, 2, 9, 14, 16, 25, 32, 35, 32, 32, 42, 51, 56, 56, 54, 54]"
1713644617599666688,"[61, 68, 70, 70, 65, 63, 68, 68, 44, 11, 0, 11, 11, 2, 2, -2, -14, -9, 0, 4, 9, 11, 11, 11, 18, 28, 30, 30, 37, 42, 42, 51, 58, 56, 51, 56, 63, 70, 70, 70, 65, 56, 61, 75, 87, 101, 108, 96, 82, 54, 18, 21, 42, 39, 39, 56, 58, 54, 49, 63, 272, 762, 1201, 1032, 178, -329, 2, 166, -51, -28, 79, 28, 9]"
1713644618160796067,"[44, 42, 42, 61, 70, 77, 79, 70, 87, 108, 119, 141, 164, 183, 216, 256, 282, 305, 331, 345, 350, 333, 289, 225, 155, 91, 47, 9, -14, -28, -37, -44, -49, -44, -37, -35, -30, -16, -4, 0, 4, 2, -11, -14, 2, 11, 14, 18, 21, 28, 39, 42, 25, 14, 18, 28, 32, 21, 9, 4, 0, -2, 2, -2, -21, -25, -11, -4, 0, 4, 2, 4, 16]"
1713644618721955968,"[23, 25, 25, 16, 2, 7, 23, 28, 28, 28, 28, 35, 47, 51, 56, 51, 51, 61, 70, 77, 79, 72, 65, 75, 94, 103, 84, 58, 51, 58, 68, 72, 70, 63, 61, 47, 35, 32, 63, 308, 827, 1230, 919, 7, -350, 39, 117, -87, -16, 65, 2, 2, 51, 51, 47, 49, 49, 54, 72, 91, 105, 119, 129, 143, 169, 202, 232, 265, 293, 312, 336, 352, 352]"
1713644619283085347,"[326, 268, 190, 122, 68, 23, -11, -37, -51, -49, -42, -32, -25, -28, -39, -37, -18, -11, -23, -37, -32, -14, -4, 0, -4, -11, -11, -18, -37, -42, -44, -51, -58, -58, -47, -42, -44, -42, -35, -28, -18, -14, -14, -11, -7, -7, -11, -11, -7, -2, 2, 9, 21, 23, 25, 30, 35, 39, 49, 51, 51, 56, 58, 63, 70, 70, 72, 75, 77, 79, 84, 84, 84]"
1713644619844214726,"[89, 89, 91, 98, 98, 87, 79, 82, 89, 82, 65, 63, 72, 77, 79, 84, 82, 94, 112, 105, 72, 54, 47, 42, 44, 49, 54, 56, 56, 65, 70, 63, 54, 152, 536, 1065, 1213, 543, -265, -188, 155, 9, -89, 35, 35, -9, 30, 56, 44, 56, 70, 72, 84, 103, 110, 119, 131, 145, 164, 192, 216, 242, 268, 296, 322, 343, 348, 338, 305, 242, 166, 108, 51]"
1713644620405374623,"[2, -30, -42, -47, -44, -42, -49, -63, -65, -49, -39, -56, -84, -98, -79, -63, -68, -70, -70, -75, -72, -58, -49, -49, -49, -44, -37, -32, -39, -47, -44, -39, -28, -16, -9, -7, -9, -4, 7, 16, 23, 25, 21, 23, 35, 44, 51, 51, 47, 49, 61, 65, 70, 70, 65, 68, 77, 82, 84, 82, 68, 63, 77, 84, 84, 84, 79, 82, 94, 98, 98, 96, 89]"
1713644620966504002,"[94, 101, 103, 103, 87, 61, 61, 77, 82, 75, 56, 35, 47, 68, 68, 68, 72, 82, 98, 91, 70, 61, 49, 42, 51, 63, 65, 68, 65, 65, 70, 63, 96, 355, 853, 1213, 896, 25, -289, 84, 129, -72, 0, 77, 21, 28, 63, 54, 58, 82, 87, 77, 82, 94, 108, 124, 141, 152, 166, 190, 221, 254, 284, 305, 322, 333, 336, 324, 282, 204, 108, 39, 4]"
1713644621527663903,"[-28, -54, -65, -70, -75, -79, -75, -79, -91, -94, -101, -110, -105, -105, -105, -94, -82, -75, -63, -58, -54, -44, -37, -30, -23, -18, -16, -9, -4, 0, 4, 7, 11, 18, 21, 25, 32, 35, 37, 44, 47, 49, 47, 44, 51, 58, 58, 63, 65, 68, 72, 77, 77, 77, 82, 84, 89, 91, 89, 91, 96, 94, 79, 58, 51, 63, 63, 63, 75, 79, 77, 79, 79]"
1713644622088793282,"[77, 72, 65, 65, 58, 42, 47, 61, 63, 61, 63, 70, 77, 87, 91, 98, 112, 117, 112, 101, 89, 82, 87, 87, 89, 94, 101, 98, 94, 89, 101, 275, 719, 1154, 1055, 265, -317, -47, 183, -25, -47, 70, 47, 28, 68, 68, 56, 79, 96, 101, 110, 115, 122, 138, 157, 159, 143, 141, 174, 214, 249, 275, 282, 279, 275, 249, 204, 155, 89, 11, -42, -70, -94]"
1713644622649932835,"[-110, -117, -122, -115, -101, -89, -79, -84, -98, -94, -70, -56, -49, -42, -39, -28, -9, 0, 9, 9, 4, 11, 28, 30, 21, 7, 4, 18, 32, 35, 42, 42, 35, 42, 58, 63, 63, 61, 61, 63, 72, 77, 82, 77, 72, 79, 89, 89, 82, 58, 47, 58, 70, 72, 75, 68, 51, 49, 61, 68, 63, 61, 65, 70, 77, 84, 84, 79, 79, 87, 94, 101, 98]"
1713644623211082558,"[94, 103, 124, 138, 131, 110, 89, 79, 82, 91, 87, 70, 61, 68, 70, 58, 47, 183, 609, 1095, 1112, 373, -324, -134, 164, -18, -72, 56, 35, -4, 42, 54, 42, 63, 79, 77, 87, 101, 110, 124, 136, 143, 138, 143, 178, 218, 244, 261, 277, 291, 303, 286, 242, 185, 122, 44, -18, -65, -103, -129, -138, -138, -131, -127, -122, -110, -98, -94, -87, -75, -72, -61, -49]"
1713644623772211937,"[-44, -35, -25, -18, -11, -7, -14, -25, -35, -39, -28, -16, -14, -11, -4, 0, 9, 14, 16, 21, 25, 30, 39, 44, 44, 47, 49, 56, 63, 65, 65, 63, 63, 70, 72, 51, 30, 39, 47, 35, 39, 51, 49, 49, 54, 61, 68, 70, 68, 68, 72, 82, 87, 87, 84, 84, 87, 94, 98, 101, 96, 94, 98, 105, 110, 112, 105, 105, 124, 143, 136, 105, 82]"
1713644624333366751,"[72, 75, 82, 87, 84, 65, 51, 61, 70, 58, 94, 352, 856, 1211, 872, -4, -298, 77, 112, -77, 2, 72, 14, 16, 56, 56, 61, 72, 54, 30, 39, 61, 75, 91, 108, 117, 141, 174, 204, 237, 263, 282, 305, 326, 331, 315, 272, 204, 136, 82, 25, -23, -56, -75, -75, -72, -82, -84, -87, -96, -89, -84, -94, -91, -82, -79, -70, -54, -44, -39, -35, -32, -25]"
1713644624894501213,"[-11, -4, -2, -4, -4, 2, 14, 16, 7, -9, -7, 7, 14, 18, 21, 16, 16, 28, 37, 42, 35, 14, 7, 23, 35, 35, 37, 37, 39, 49, 58, 61, 58, 61, 61, 68, 75, 77, 77, 77, 79, 84, 89, 89, 87, 89, 91, 94, 98, 98, 96, 96, 87, 75, 75, 82, 79, 79, 82, 87, 94, 94, 91, 96, 110, 129, 134, 117, 101, 89, 82, 84, 89]"
1713644625455661114,"[87, 87, 91, 89, 89, 72, 75, 308, 804, 1187, 931, 70, -333, 7, 84, -134, -72, 16, -39, -32, 16, 9, 11, 35, 39, 49, 65, 77, 87, 101, 112, 134, 157, 178, 206, 237, 265, 296, 319, 329, 333, 322, 282, 218, 134, 61, 14, -21, -54, -72, -82, -84, -82, -79, -84, -82, -77, -82, -89, -82, -65, -54, -49, -47, -42, -35, -23, -14, -9, -9, -11, -7, 2]"
1713644626016790493,"[9, 9, 4, -4, 0, 11, 11, -9, -35, -47, -44, -28, -18, -11, -7, -9, 2, 18, 28, 30, 25, 25, 39, 56, 61, 63, 58, 58, 70, 79, 82, 87, 82, 79, 82, 75, 75, 84, 79, 75, 84, 94, 98, 101, 91, 91, 103, 112, 117, 117, 112, 124, 148, 155, 141, 117, 98, 101, 110, 112, 110, 110, 110, 115, 119, 112, 171, 479, 983, 1225, 717, -148, -268]"
1713644626577935133,"[108, 51, -98, 9, 49, 0, 25, 49, 37, 54, 77, 75, 63, 63, 79, 101, 119, 131, 145, 166, 199, 237, 270, 301, 324, 333, 331, 326, 310, 258, 176, 103, 49, 4, -32, -63, -84, -89, -82, -77, -77, -87, -91, -94, -89, -75, -68, -68, -65, -54, -44, -35, -25, -21, -18, -16, -11, -9, -21, -28, -18, -11, -9, 2, 4, -16, -28, -16, -2, 2, 7, 9, 14]"
1713644627139079769,"[16, 23, 32, 35, 35, 39, 42, 47, 51, 42, 30, 37, 44, 47, 54, 56, 51, 42, 35, 47, 54, 51, 56, 63, 65, 72, 77, 77, 89, 110, 117, 112, 101, 82, 75, 79, 82, 82, 84, 84, 89, 94, 87, 75, 166, 538, 1079, 1267, 635, -232, -230, 150, 35, -94, 28, 44, -11, 9, 16, -2, 16, 37, 37, 49, 68, 79, 89, 105, 119, 141, 166, 195, 221]"
1713644627700209148,"[254, 284, 312, 336, 343, 329, 289, 214, 131, 61, 7, -39, -72, -87, -87, -79, -77, -75, -70, -61, -49, -37, -32, -30, -25, -16, -4, 4, 2, -7, -7, 4, 11, 9, 0, -9, -18, -23, -16, -14, -30, -49, -44, -30, -25, -18, -14, -18, -18, -18, -35, -37, -23, -23, -23, -11, 2, 7, 11, 9, 11, 25, 35, 39, 42, 39, 39, 51, 61, 63, 65, 56, 44]"
1713644628261369045,"[44, 54, 61, 58, 54, 58, 70, 75, 77, 68, 47, 49, 68, 72, 72, 72, 65, 70, 82, 89, 94, 91, 82, 91, 117, 134, 131, 110, 89, 82, 82, 75, 65, 61, 61, 68, 77, 79, 68, 84, 322, 830, 1237, 961, 51, -359, 7, 103, -103, -44, 42, -18, -18, 32, 32, 32, 51, 56, 58, 75, 91, 101, 115, 122, 124, 148, 181, 206, 232, 261, 286, 312, 329]"
1713644628822503515,"[333, 315, 275, 209, 141, 84, 28, -30, -65, -72, -72, -70, -65, -63, -58, -51, -39, -32, -25, -21, -16, -11, -16, -21, -23, -30, -28, -18, -11, -11, -23, -32, -32, -39, -37, -32, -49, -65, -56, -49, -44, -35, -32, -30, -21, -18, -11, -4, -2, 0, 7, 9, 16, 23, 18, 11, 18, 25, 30, 35, 37, 42, 49, 51, 54, 56, 58, 63, 70, 68, 70, 75, 75]"
1713644629383658325,"[79, 84, 84, 84, 84, 87, 91, 94, 89, 84, 70, 61, 70, 63, 47, 49, 61, 63, 70, 72, 77, 94, 108, 110, 98, 84, 75, 75, 68, 47, 42, 58, 58, 56, 58, 54, 68, 265, 736, 1185, 1065, 232, -324, -23, 164, -61, -65, 49, 14, -7, 32, 35, 32, 58, 68, 72, 82, 91, 103, 119, 136, 150, 162, 176, 211, 249, 279, 305, 322, 333, 348, 343, 310]"
1713644629944787704,"[246, 169, 98, 44, 0, -37, -58, -82, -101, -94, -77, -77, -87, -87, -79, -68, -58, -61, -68, -75, -75, -75, -87, -94, -79, -75, -72, -56, -44, -39, -37, -37, -28, -14, -9, -2, -4, -16, -11, 7, 21, 25, 18, 14, 28, 42, 44, 44, 44, 42, 51, 63, 70, 77, 75, 65, 70, 84, 87, 87, 87, 82, 89, 101, 103, 101, 94, 91, 91, 87, 84, 87, 89]"
1713644630505937431,"[89, 98, 101, 108, 127, 134, 124, 110, 105, 101, 79, 58, 68, 84, 77, 58, 42, 39, 39, 152, 564, 1100, 1204, 503, -298, -197, 171, 16, -98, 28, 30, -16, 32, 58, 39, 49, 70, 75, 87, 101, 108, 119, 134, 150, 174, 195, 218, 256, 291, 324, 350, 366, 371, 364, 326, 261, 190, 122, 54, -4, -51, -70, -79, -98, -96, -84, -84, -87, -87, -89, -94, -96, -91]"
1713644631067076980,"[-82, -75, -72, -63, -51, -44, -37, -35, -51, -58, -47, -37, -37, -44, -54, -44, -32, -35, -37, -42, -39, -25, -18, -18, -11, -4, 2, 14, 18, 18, 25, 32, 35, 39, 44, 47, 51, 51, 54, 63, 68, 68, 70, 70, 75, 82, 84, 82, 82, 82, 82, 75, 70, 77, 89, 103, 112, 105, 89, 72, 65, 68, 75, 82, 82, 79, 79, 82, 77, 84, 265, 740, 1227]"
1713644631628236881,"[1135, 261, -371, -79, 131, -108, -115, 16, -21, -49, -16, -18, -16, 14, 30, 35, 42, 54, 70, 89, 108, 122, 136, 157, 192, 232, 265, 293, 312, 326, 338, 329, 293, 228, 148, 79, 32, -2, -25, -39, -54, -63, -63, -58, -49, -44, -47, -37, -21, -14, -9, -7, -7, 2, 16, 23, 30, 28, 11, 14, 28, 32, 28, 14, 0, -7, -30, -51, -42, -37, -47, -37, -23]"
1713644632189366260,"[-25, -35, -39, -37, -28, -18, -9, -9, -25, -32, -16, -2, 2, 7, 7, 7, 18, 30, 35, 37, 37, 39, 49, 58, 63, 63, 63, 63, 70, 79, 82, 82, 72, 61, 61, 75, 79, 75, 75, 77, 84, 89, 94, 91, 94, 96, 98, 112, 131, 136, 127, 112, 103, 96, 96, 96, 94, 94, 87, 68, 58, 63, 51, 82, 355, 872, 1244, 912, 0, -331, 61, 108, -101]"
1713644632750526157,"[-23, 54, -7, 2, 49, 42, 39, 63, 68, 75, 87, 79, 77, 98, 115, 131, 155, 178, 204, 239, 270, 296, 326, 338, 326, 303, 270, 211, 138, 72, 25, -9, -35, -47, -49, -54, -49, -37, -30, -28, -25, -16, -2, 4, 4, 9, 14, 18, 23, 32, 39, 32, 11, 9, 21, 7, -21, -23, -14, -14, -18, -21, -25, -35, -37, -28, -16, -14, -14, -11, -7, 2, 7]"
1713644633311655536,"[9, 11, 16, 21, 28, 37, 42, 37, 21, 9, 21, 39, 42, 39, 42, 42, 37, 47, 56, 51, 47, 56, 68, 75, 79, 72, 70, 77, 84, 91, 94, 87, 84, 96, 105, 105, 105, 105, 103, 112, 129, 148, 150, 124, 82, 63, 68, 63, 49, 51, 61, 68, 77, 82, 72, 91, 352, 896, 1291, 964, 39, -333, 63, 150, -61, 7, 84, 11, 11, 70, 72, 72, 87]"
1713644633872784915,"[84, 91, 115, 124, 131, 143, 141, 145, 181, 214, 235, 254, 272, 305, 338, 352, 355, 333, 277, 211, 143, 77, 21, -23, -54, -61, -61, -58, -54, -56, -56, -39, -25, -21, -14, -14, -25, -49, -72, -65, -49, -51, -63, -63, -54, -54, -58, -58, -54, -47, -39, -32, -32, -32, -30, -21, -11, -4, -4, -7, -2, 11, 18, 18, 21, 18, 21, 32, 42, 44, 37, 28, 30]"
1713644634433939729,"[44, 49, 51, 51, 54, 56, 63, 68, 61, 54, 63, 79, 84, 77, 56, 44, 51, 56, 56, 61, 61, 61, 68, 70, 61, 82, 308, 827, 1291, 1058, 91, -428, -49, 101, -131, -91, 21, -28, -35, 11, 11, 9, 32, 47, 49, 63, 77, 87, 101, 117, 134, 155, 183, 214, 246, 282, 310, 338, 355, 352, 331, 277, 195, 122, 58, 2, -35, -56, -70, -70, -65, -68, -63]"
1713644634995074191,"[-56, -51, -42, -35, -35, -39, -58, -63, -42, -32, -32, -25, -18, -11, -4, -11, -18, -14, -9, -11, -25, -42, -58, -87, -101, -82, -68, -70, -68, -61, -56, -47, -37, -32, -32, -32, -25, -14, -4, 0, 0, 2, 7, 18, 25, 28, 28, 28, 35, 42, 49, 49, 39, 35, 47, 56, 58, 61, 58, 56, 63, 72, 77, 77, 72, 70, 77, 87, 89, 91, 87, 82, 96]"
1713644635556234092,"[119, 131, 117, 79, 51, 54, 61, 61, 61, 54, 51, 51, 49, 49, 39, 79, 376, 921, 1267, 825, -115, -331, 72, 54, -127, -23, 25, -39, -14, 32, 23, 32, 49, 47, 56, 79, 91, 101, 110, 119, 141, 169, 192, 209, 223, 249, 286, 312, 326, 329, 305, 256, 195, 131, 72, 23, -16, -42, -49, -47, -44, -42, -44, -42, -28, -18, -11, -7, -7, -2, 9, 18, 23]"
1713644636117373645,"[25, 23, 14, 9, 18, 28, 25, 21, 11, -16, -30, -18, -30, -51, -51, -44, -49, -54, -51, -49, -44, -37, -28, -23, -21, -18, -14, -4, 2, 7, 7, 9, 16, 21, 21, 11, 14, 23, 25, 32, 42, 44, 47, 51, 54, 58, 65, 68, 68, 72, 77, 79, 84, 84, 84, 89, 89, 91, 96, 96, 96, 101, 101, 101, 105, 105, 96, 84, 84, 105, 127, 124, 112]"
1713644636678523368,"[101, 79, 51, 39, 49, 58, 56, 58, 63, 54, 30, 32, 206, 670, 1185, 1171, 350, -326, -84, 159, -49, -72, 49, 18, -7, 28, 23, 14, 39, 56, 61, 70, 79, 87, 103, 127, 141, 155, 178, 204, 235, 272, 308, 326, 338, 348, 345, 315, 256, 183, 112, 54, 14, -9, -23, -37, -39, -47, -56, -49, -39, -37, -30, -18, -11, -4, -4, -21, -37, -25, -7, -2, 0]"
1713644637239652747,"[2, -4, -7, 4, 9, 2, -18, -39, -39, -37, -37, -39, -39, -37, -30, -25, -25, -32, -39, -37, -25, -11, -2, -2, -4, 2, 11, 23, 30, 28, 23, 35, 44, 49, 58, 58, 49, 54, 68, 75, 77, 75, 72, 77, 82, 84, 91, 98, 89, 77, 77, 87, 98, 112, 122, 115, 105, 94, 84, 70, 49, 54, 70, 70, 68, 75, 70, 65, 141, 489, 1037, 1288, 736]"
1713644637800807561,"[-166, -261, 152, 84, -87, 25, 63, -2, 16, 37, 2, 4, 39, 54, 54, 70, 79, 87, 105, 127, 145, 169, 195, 228, 265, 301, 333, 350, 357, 352, 326, 270, 197, 119, 47, -2, -28, -42, -54, -63, -68, -68, -61, -56, -63, -65, -56, -51, -51, -51, -51, -56, -72, -94, -91, -72, -65, -65, -63, -54, -44, -32, -30, -30, -28, -21, -14, -7, -4, -2, 4, -2, -11]"
1713644638361942023,"[-7, 2, 4, 7, 14, 18, 18, 7, 0, 9, 18, 21, 28, 30, 35, 44, 47, 49, 54, 54, 58, 65, 68, 70, 72, 70, 75, 82, 87, 89, 89, 89, 101, 115, 110, 91, 79, 70, 72, 79, 77, 77, 79, 82, 84, 65, 28, 87, 420, 976, 1293, 806, -131, -308, 105, 68, -108, 0, 44, -16, 7, 47, 32, 23, 35, 44, 51, 68, 84, 96, 105, 117, 136]"
1713644638923076493,"[159, 192, 223, 246, 263, 282, 310, 331, 326, 298, 246, 174, 105, 49, 0, -39, -61, -65, -61, -54, -51, -54, -58, -51, -37, -28, -23, -23, -21, -9, 2, 9, 14, 7, -2, 7, 18, 16, -7, -39, -44, -37, -42, -39, -32, -39, -42, -28, -21, -16, -14, -16, -14, -7, -14, -14, -9, -11, -9, 7, 16, 21, 23, 18, 23, 37, 44, 49, 51, 47, 49, 61, 68]"
1713644639484231303,"[70, 70, 63, 68, 77, 84, 87, 84, 75, 79, 89, 94, 91, 79, 70, 77, 87, 89, 84, 68, 51, 63, 77, 75, 77, 75, 70, 77, 87, 89, 72, 44, 44, 75, 98, 98, 89, 72, 58, 58, 68, 72, 72, 70, 65, 58, 58, 61, 47, 119, 486, 1048, 1288, 705, -181, -237, 141, 42, -94, 25, 42, -14, 21, 54, 44, 54, 68, 70, 75, 89, 103, 110, 119]"
1713644640045360682,"[134, 150, 174, 195, 209, 228, 263, 291, 312, 329, 317, 279, 235, 176, 108, 49, 2, -35, -54, -63, -63, -58, -58, -72, -87, -82, -63, -51, -49, -44, -44, -47, -37, -25, -28, -37, -51, -63, -63, -61, -58, -49, -42, -42, -35, -28, -25, -21, -14, -14, -7, 0, -2, 4, 14, 16, 18, 25, 25, 32, 39, 39, 42, 49, 54, 58, 58, 56, 47, 39, 44, 56, 58]"
1713644640606510409,"[58, 63, 63, 68, 79, 82, 77, 68, 54, 54, 68, 77, 75, 72, 72, 70, 56, 39, 44, 56, 58, 63, 72, 75, 70, 72, 75, 70, 65, 72, 72, 68, 75, 87, 91, 94, 98, 112, 131, 136, 122, 108, 96, 87, 87, 96, 105, 108, 103, 98, 105, 103, 115, 317, 801, 1253, 1105, 239, -315, -7, 157, -70, -47, 68, 23, 9, 47, 47, 51, 77, 82, 84, 94]"
1713644641167649958,"[105, 117, 136, 155, 155, 148, 164, 202, 225, 237, 265, 291, 305, 312, 303, 275, 214, 127, 37, -35, -77, -105, -143, -155, -145, -136, -127, -115, -112, -112, -96, -77, -68, -63, -56, -54, -44, -28, -18, -14, -7, -4, 4, 16, 23, 25, 23, 21, 28, 35, 30, 21, 14, 18, 28, 37, 44, 47, 47, 49, 51, 58, 65, 68, 63, 63, 70, 79, 84, 82, 77, 77, 84]"
1713644641728779337,"[84, 63, 42, 47, 56, 56, 63, 65, 44, 18, 16, 30, 37, 42, 42, 44, 54, 63, 65, 75, 91, 105, 98, 87, 82, 72, 65, 70, 72, 75, 82, 84, 82, 84, 75, 115, 399, 931, 1284, 907, -21, -336, 61, 98, -108, -25, 47, -11, 2, 42, 32, 37, 56, 65, 72, 84, 94, 105, 117, 134, 150, 166, 192, 223, 251, 279, 301, 305, 303, 303, 286, 230, 157]"
1713644642289913807,"[72, -16, -72, -105, -134, -159, -171, -164, -150, -148, -138, -127, -117, -103, -94, -89, -79, -70, -61, -49, -39, -35, -28, -18, -11, 0, 4, 7, 11, 16, 21, 25, 16, 4, 7, 14, 21, 28, 35, 35, 35, 39, 44, 54, 58, 54, 54, 61, 65, 70, 72, 70, 68, 72, 79, 84, 87, 82, 79, 65, 47, 49, 58, 56, 51, 47, 51, 61, 63, 58, 58, 65, 72]"
1713644642851068617,"[77, 79, 75, 72, 79, 87, 89, 87, 68, 51, 61, 72, 72, 72, 70, 68, 77, 87, 89, 87, 91, 108, 117, 101, 75, 58, 47, 47, 58, 65, 68, 68, 63, 65, 68, 63, 185, 592, 1107, 1213, 524, -254, -150, 169, -2, -87, 44, 39, -2, 35, 42, 23, 21, 25, 39, 42, 35, 49, 72, 89, 103, 119, 136, 164, 202, 235, 265, 279, 286, 301, 308, 289, 232]"
1713644643412197996,"[150, 70, 2, -49, -82, -101, -119, -127, -117, -108, -101, -105, -119, -115, -105, -108, -101, -87, -84, -77, -61, -47, -39, -35, -30, -25, -14, -4, 2, 4, 4, 9, 16, 25, 28, 28, 30, 35, 39, 47, 51, 51, 51, 51, 37, 18, 16, 18, 18, 23, 32, 39, 42, 44, 49, 51, 58, 65, 65, 65, 70, 72, 77, 82, 82, 82, 84, 87, 89, 94, 94, 94, 96]"
1713644643973357893,"[96, 98, 101, 98, 96, 91, 72, 72, 72, 44, 37, 54, 56, 54, 63, 63, 65, 72, 75, 79, 84, 82, 98, 119, 124, 115, 101, 87, 82, 84, 84, 84, 84, 87, 94, 96, 79, 42, 117, 505, 1041, 1197, 562, -251, -214, 141, 11, -98, 21, 28, -18, 23, 51, 39, 49, 68, 68, 77, 96, 108, 115, 127, 138, 162, 188, 209, 232, 261, 291, 317, 324, 317, 312]"
1713644644534487272,"[291, 246, 185, 112, 30, -37, -98, -138, -136, -127, -129, -131, -127, -115, -101, -89, -82, -77, -70, -58, -42, -32, -28, -28, -21, -7, 4, 9, 4, -7, -23, -30, -21, -7, -7, -9, -7, 9, 21, 28, 28, 21, 25, 44, 54, 56, 58, 56, 54, 65, 75, 77, 72, 72, 79, 94, 101, 101, 96, 87, 84, 79, 77, 79, 79, 75, 79, 87, 91, 103, 101, 87, 89]"
1713644645095647169,"[103, 105, 105, 105, 96, 96, 105, 110, 105, 91, 77, 87, 105, 122, 131, 117, 94, 84, 89, 82, 63, 54, 47, 30, 30, 49, 49, 47, 218, 691, 1166, 1074, 254, -362, -89, 162, -37, -58, 58, 21, -7, 44, 56, 51, 65, 70, 72, 91, 105, 112, 124, 129, 129, 134, 155, 183, 214, 246, 272, 289, 305, 308, 284, 249, 195, 122, 51, -9, -61, -94, -110, -117, -112]"
1713644645656781639,"[-110, -108, -98, -91, -82, -72, -77, -87, -75, -63, -63, -63, -63, -54, -49, -68, -70, -47, -39, -39, -28, -23, -16, -7, -2, 0, 7, 14, 21, 25, 25, 32, 39, 39, 44, 51, 51, 56, 65, 63, 65, 72, 65, 54, 51, 56, 58, 58, 58, 65, 70, 68, 70, 72, 72, 79, 84, 82, 82, 84, 84, 89, 91, 89, 91, 94, 98, 103, 103, 105, 124, 136, 129]"
1713644646217936449,"[117, 96, 68, 56, 63, 68, 70, 56, 30, 16, 11, 2, 70, 397, 933, 1225, 743, -155, -312, 91, 49, -129, -18, 32, -21, 2, 35, 21, 30, 56, 63, 68, 79, 91, 91, 98, 119, 138, 150, 171, 206, 242, 279, 310, 324, 333, 341, 331, 293, 225, 143, 72, 28, -9, -44, -68, -79, -79, -75, -72, -77, -79, -87, -91, -77, -70, -77, -84, -79, -70, -58, -49, -54]"
1713644646779065828,"[-77, -84, -65, -51, -47, -37, -39, -61, -58, -37, -30, -25, -18, -21, -14, 2, 9, 16, 16, 14, 21, 32, 39, 47, 47, 32, 30, 42, 51, 51, 49, 44, 54, 65, 68, 70, 68, 65, 70, 79, 84, 84, 82, 79, 84, 94, 96, 96, 94, 89, 94, 103, 105, 103, 98, 96, 98, 91, 82, 84, 82, 77, 84, 94, 96, 94, 75, 56, 65, 87, 103, 108, 98]"
1713644647340215555,"[84, 75, 72, 70, 70, 70, 68, 72, 82, 77, 54, 32, 110, 451, 985, 1244, 724, -166, -279, 112, 49, -112, -4, 30, -23, 7, 42, 30, 35, 56, 61, 68, 84, 91, 98, 112, 127, 145, 166, 188, 214, 244, 275, 303, 326, 338, 341, 326, 275, 202, 134, 72, 18, -21, -44, -58, -72, -84, -82, -91, -112, -112, -103, -110, -110, -103, -101, -89, -79, -75, -63, -54, -51]"
1713644647901355104,"[-47, -42, -35, -25, -21, -21, -11, -14, -21, -14, -2, -2, -4, -11, -18, -9, 2, 4, 9, 11, 18, 28, 32, 35, 39, 44, 51, 61, 63, 58, 63, 68, 72, 82, 84, 82, 84, 87, 91, 87, 75, 70, 77, 79, 82, 91, 94, 89, 87, 96, 101, 84, 58, 56, 68, 70, 75, 84, 84, 79, 84, 94, 98, 103, 108, 103, 96, 112, 141, 150, 134, 108, 84]"
1713644648462515005,"[82, 91, 96, 89, 70, 54, 70, 87, 77, 70, 181, 576, 1098, 1218, 545, -251, -176, 174, 32, -65, 68, 63, 2, 44, 79, 65, 72, 89, 89, 98, 108, 103, 112, 131, 138, 155, 185, 216, 244, 272, 301, 331, 359, 371, 352, 298, 235, 171, 105, 44, -9, -65, -105, -115, -122, -127, -122, -117, -112, -101, -91, -84, -75, -77, -77, -61, -49, -39, -28, -21, -18, -9, 0]"
1713644649023644384,"[4, 9, 7, 4, 14, 28, 28, 16, -2, 2, 16, 21, 23, 30, 32, 30, 37, 51, 56, 54, 54, 47, 37, 44, 56, 54, 51, 56, 63, 72, 77, 75, 70, 75, 84, 91, 84, 61, 51, 61, 70, 72, 72, 75, 79, 82, 84, 98, 115, 122, 117, 103, 87, 70, 54, 56, 65, 65, 65, 75, 77, 72, 61, 131, 482, 1030, 1279, 731, -166, -263, 143, 75, -94]"
1713644649584783937,"[21, 58, -2, 28, 61, 44, 51, 75, 75, 79, 84, 72, 72, 82, 91, 115, 138, 157, 192, 230, 261, 291, 317, 329, 333, 317, 270, 202, 127, 39, -44, -94, -110, -119, -127, -129, -129, -129, -131, -134, -129, -115, -105, -101, -103, -110, -103, -87, -75, -68, -61, -51, -47, -37, -25, -21, -23, -21, -16, -7, 2, 7, 7, 7, 11, 21, 30, 35, 32, 32, 39, 49, 56]"
1713644650145933660,"[56, 54, 51, 49, 42, 44, 54, 44, 25, 28, 44, 51, 49, 49, 49, 56, 65, 72, 72, 70, 70, 77, 70, 49, 44, 49, 51, 56, 68, 72, 72, 70, 70, 79, 87, 79, 68, 56, 63, 75, 82, 87, 87, 79, 84, 96, 98, 105, 122, 127, 122, 115, 105, 96, 91, 87, 89, 96, 101, 103, 101, 89, 82, 119, 383, 900, 1281, 959, 42, -319, 63, 127, -91]"
1713644650707063039,"[-30, 51, 2, 9, 54, 39, 32, 58, 72, 77, 82, 70, 65, 89, 110, 103, 98, 119, 150, 181, 221, 256, 279, 291, 298, 296, 268, 202, 127, 61, -4, -54, -77, -87, -98, -110, -115, -110, -110, -115, -112, -105, -98, -89, -75, -68, -65, -61, -51, -42, -30, -25, -23, -18, -16, -7, 2, 9, 7, -4, -7, 4, 14, 14, 16, 21, 25, 30, 39, 39, 39, 44, 47]"
1713644651268217853,"[51, 56, 56, 56, 61, 61, 65, 68, 51, 35, 42, 51, 51, 51, 42, 32, 39, 39, 28, 28, 35, 39, 44, 47, 51, 58, 58, 63, 68, 70, 72, 75, 75, 79, 87, 84, 87, 89, 89, 94, 96, 94, 96, 96, 96, 101, 105, 105, 105, 110, 115, 124, 127, 110, 91, 79, 77, 84, 89, 87, 87, 87, 89, 91, 82, 112, 371, 877, 1244, 943, 58, -298, 75]"
1713644651829352315,"[124, -105, -37, 49, -18, -30, 0, -2, 0, 2, 2, 16, 37, 49, 63, 79, 89, 103, 124, 155, 188, 218, 244, 270, 298, 319, 331, 326, 284, 216, 150, 91, 37, -18, -68, -96, -108, -112, -105, -98, -103, -108, -103, -87, -72, -70, -68, -61, -49, -39, -25, -14, -16, -21, -9, 7, 16, 16, 7, 14, 30, 32, 30, 37, 35, 18, 2, 4, 21, 21, 14, 23, 35]"
1713644652390481698,"[25, 21, 32, 28, 28, 42, 49, 56, 47, 25, 35, 54, 54, 56, 61, 56, 61, 77, 84, 87, 79, 72, 79, 94, 98, 98, 94, 89, 96, 105, 105, 105, 98, 89, 94, 101, 103, 105, 105, 103, 108, 119, 138, 152, 138, 115, 105, 103, 105, 105, 101, 94, 98, 110, 112, 103, 98, 225, 627, 1105, 1140, 416, -317, -164, 150, -28, -98, 28, 11, -25, 21, 39, 30]"
1713644652951621251,"[44, 56, 61, 77, 91, 98, 108, 119, 119, 129, 155, 171, 169, 188, 223, 249, 263, 263, 258, 242, 192, 122, 51, -18, -75, -103, -124, -136, -131, -127, -124, -110, -101, -89, -79, -72, -65, -54, -49, -39, -28, -18, -11, -4, 0, 9, 16, 16, 23, 30, 18, -4, -9, -2, 2, -7, -14, -2, 4, 4, 14, 23, 23, 28, 32, 32, 42, 49, 49, 51, 58, 58, 65]"
1713644653512755717,"[70, 68, 68, 72, 75, 79, 82, 79, 72, 61, 54, 68, 72, 63, 51, 44, 49, 63, 63, 61, 63, 65, 70, 77, 82, 79, 79, 84, 89, 94, 101, 115, 124, 117, 105, 96, 84, 77, 79, 79, 84, 91, 91, 79, 54, 30, 89, 404, 938, 1234, 759, -138, -301, 101, 61, -119, -21, 28, -21, 7, 39, 21, 25, 54, 61, 65, 77, 82, 87, 105, 127, 143, 162]"
1713644654073900353,"[176, 199, 237, 275, 301, 308, 286, 277, 275, 235, 169, 101, 28, -37, -77, -105, -127, -143, -150, -143, -131, -122, -110, -105, -105, -94, -77, -68, -58, -54, -56, -47, -28, -21, -11, -7, -28, -56, -56, -37, -30, -35, -39, -28, -14, -9, -4, -2, -2, 7, 18, 25, 28, 28, 25, 35, 44, 49, 54, 49, 47, 56, 63, 68, 70, 65, 65, 70, 75, 68, 56, 51, 56]"
1713644654635029732,"[63, 68, 75, 75, 70, 68, 75, 82, 82, 68, 51, 54, 65, 68, 70, 70, 68, 70, 75, 82, 84, 82, 79, 82, 84, 91, 91, 89, 77, 47, 28, 47, 72, 77, 75, 68, 56, 51, 49, 49, 54, 56, 61, 68, 70, 68, 58, 79, 315, 818, 1232, 1001, 119, -326, 25, 141, -77, -37, 56, 0, -11, 23, 16, 18, 42, 49, 56, 72, 82, 91, 108, 119, 136]"
1713644655196189633,"[157, 176, 202, 232, 261, 289, 305, 305, 312, 317, 282, 218, 150, 82, 25, -21, -65, -94, -108, -131, -143, -141, -155, -166, -150, -134, -124, -110, -101, -91, -82, -72, -61, -49, -42, -37, -30, -18, -7, 0, 2, 4, 7, 11, 23, 28, 25, 28, 35, 42, 47, 42, 28, 28, 37, 44, 51, 51, 54, 58, 63, 70, 75, 77, 75, 75, 77, 82, 91, 98, 96, 89, 91]"
1713644655757319012,"[98, 105, 105, 91, 72, 70, 84, 91, 89, 87, 84, 82, 87, 94, 87, 65, 54, 61, 72, 79, 77, 70, 72, 82, 91, 96, 96, 89, 89, 101, 108, 110, 108, 96, 108, 143, 150, 131, 112, 91, 87, 101, 101, 84, 79, 79, 82, 94, 96, 103, 293, 776, 1232, 1093, 242, -317, -11, 181, -32, -25, 87, 44, 21, 61, 70, 70, 89, 101, 96, 96, 110, 127, 143]"
1713644656318458565,"[157, 159, 152, 166, 199, 235, 268, 277, 263, 263, 277, 270, 235, 166, 89, 28, -25, -75, -112, -136, -141, -136, -131, -119, -112, -108, -98, -84, -77, -65, -51, -44, -44, -44, -44, -35, -23, -21, -16, -4, 4, 9, 11, 16, 16, 18, 28, 35, 35, 35, 39, 49, 56, 56, 54, 56, 58, 63, 68, 68, 65, 68, 72, 77, 84, 79, 70, 65, 70, 75, 79, 79, 79]"
1713644656879593031,"[72, 47, 35, 51, 54, 51, 58, 58, 61, 61, 49, 39, 51, 58, 61, 65, 70, 84, 101, 98, 82, 68, 58, 58, 58, 44, 42, 51, 51, 54, 61, 49, 96, 404, 943, 1274, 844, -84, -315, 96, 91, -98, -2, 51, -9, 9, 49, 39, 44, 61, 65, 70, 82, 96, 108, 117, 124, 134, 150, 181, 209, 237, 270, 301, 315, 324, 315, 277, 223, 162, 82, 7, -56]"
1713644657440737667,"[-112, -143, -152, -152, -148, -145, -148, -155, -155, -138, -122, -115, -110, -103, -94, -87, -87, -84, -75, -68, -56, -42, -30, -25, -23, -21, -11, -2, 4, 7, 4, 4, 14, 23, 28, 30, 28, 30, 39, 47, 51, 54, 47, 47, 56, 63, 65, 63, 49, 47, 58, 65, 68, 68, 63, 63, 72, 79, 77, 56, 28, 35, 54, 54, 56, 61, 54, 58, 68, 72, 75, 75, 68]"
1713644658001867046,"[72, 79, 79, 82, 79, 68, 65, 63, 61, 68, 54, 30, 44, 77, 91, 84, 70, 51, 44, 54, 61, 63, 58, 56, 63, 72, 72, 61, 94, 373, 907, 1274, 907, -7, -308, 75, 103, -89, -14, 37, -35, -18, 30, 23, 28, 49, 47, 51, 72, 87, 96, 105, 101, 91, 110, 148, 174, 199, 232, 263, 293, 317, 326, 315, 282, 223, 145, 77, 25, -23, -65, -103, -119]"
1713644658562996425,"[-122, -127, -131, -122, -115, -108, -94, -96, -108, -103, -87, -77, -65, -58, -56, -47, -37, -30, -18, -14, -14, -7, 0, 2, 9, 11, 14, 21, 23, 23, 14, 7, 14, 23, 25, 30, 37, 37, 39, 49, 51, 51, 56, 56, 54, 32, 16, 30, 42, 37, 49, 58, 54, 61, 70, 65, 68, 77, 70, 70, 77, 75, 65, 58, 63, 70, 70, 70, 79, 84, 82, 82, 82]"
1713644659124156326,"[87, 94, 94, 91, 87, 70, 65, 79, 87, 82, 84, 91, 91, 98, 117, 129, 124, 110, 96, 94, 89, 75, 61, 65, 79, 82, 87, 89, 68, 87, 341, 863, 1272, 1013, 112, -329, 39, 157, -84, -65, 28, -16, -18, 30, 35, 30, 47, 58, 68, 84, 94, 96, 101, 108, 122, 145, 171, 192, 223, 265, 308, 331, 341, 352, 350, 322, 277, 204, 112, 35, -11, -39, -63]"
1713644659685285705,"[-79, -89, -103, -112, -103, -91, -84, -87, -105, -110, -82, -72, -84, -87, -79, -68, -54, -37, -30, -32, -30, -21, -9, 0, 7, 9, 4, 11, 21, 23, 11, -14, -21, -2, 14, 14, 18, 16, 16, 28, 42, 39, 44, 49, 37, 32, 44, 54, 51, 49, 49, 56, 68, 70, 72, 68, 65, 72, 82, 84, 84, 79, 79, 89, 94, 94, 94, 91, 91, 96, 105, 105, 108]"
1713644660246415084,"[119, 131, 127, 98, 70, 63, 63, 63, 65, 72, 72, 56, 47, 47, 47, 157, 557, 1086, 1220, 550, -270, -202, 157, -4, -138, -4, 11, -37, 0, 23, 9, 23, 47, 54, 63, 70, 68, 77, 98, 117, 134, 155, 181, 209, 242, 282, 310, 331, 348, 348, 322, 265, 192, 119, 54, -9, -61, -87, -110, -124, -122, -117, -115, -105, -98, -91, -84, -89, -96, -84, -75, -65, -56]"
1713644660807564811,"[-47, -39, -35, -28, -16, -11, -9, -7, -14, -25, -16, -2, -7, -2, 2, -2, -21, -28, -16, -7, -7, -2, 11, 16, 14, 21, 21, 11, 21, 32, 30, 32, 35, 42, 49, 56, 54, 54, 58, 63, 70, 75, 72, 72, 77, 84, 89, 89, 89, 89, 89, 96, 101, 101, 98, 96, 98, 101, 94, 79, 77, 82, 84, 89, 96, 94, 91, 91, 94, 101, 108, 105, 103]"
1713644661368704360,"[112, 131, 138, 129, 110, 79, 54, 58, 65, 44, 23, 30, 37, 39, 37, 39, 183, 602, 1100, 1159, 430, -308, -148, 141, -42, -98, 32, 14, -25, 18, 35, 28, 47, 65, 65, 68, 79, 94, 108, 124, 138, 148, 166, 199, 230, 261, 284, 293, 315, 326, 312, 286, 235, 152, 77, 14, -39, -75, -98, -119, -119, -112, -105, -98, -96, -94, -84, -68, -49, -44, -51, -49, -32]"
1713644661929833739,"[-23, -39, -56, -49, -47, -51, -23, 7, -11, -32, -16, -9, -9, -9, -23, -30, -16, -9, -2, 18, 18, 9, 18, 28, 28, 32, 37, 39, 47, 49, 51, 54, 58, 61, 68, 72, 77, 77, 75, 77, 68, 56, 58, 68, 72, 72, 68, 77, 91, 84, 75, 79, 91, 94, 94, 96, 98, 101, 94, 91, 103, 98, 96, 105, 98, 91, 98, 87, 68, 70, 89, 94, 82]"
1713644662490968209,"[82, 103, 117, 108, 94, 79, 51, 44, 61, 54, 51, 77, 77, 63, 72, 63, 91, 366, 891, 1260, 914, 4, -322, 77, 131, -77, -4, 68, 9, 16, 54, 37, 30, 56, 65, 61, 75, 98, 101, 105, 134, 152, 157, 183, 228, 256, 282, 308, 326, 345, 352, 338, 305, 237, 150, 75, 0, -51, -75, -115, -148, -143, -138, -159, -164, -136, -119, -124, -115, -94, -82, -84, -87]"
1713644663052102675,"[-61, -35, -35, -28, -14, -9, -14, -21, -18, -14, -14, -7, -2, -30, -25, 30, 30, 7, 42, 49, 21, 25, 37, 21, 21, 35, 35, 28, 37, 49, 58, 61, 54, 54, 63, 72, 72, 72, 63, 68, 87, 89, 87, 91, 84, 79, 89, 96, 94, 91, 89, 91, 89, 70, 58, 70, 70, 61, 51, 44, 42, 42, 35, 39, 54, 58, 63, 68, 51, 49, 228, 703, 1208]"
1713644663613252398,"[1154, 310, -348, -75, 176, -42, -75, 42, 16, -4, 42, 49, 16, 7, 14, 23, 42, 58, 58, 63, 84, 112, 134, 155, 178, 206, 246, 284, 317, 338, 343, 341, 317, 249, 164, 101, 35, -28, -68, -89, -103, -119, -131, -127, -115, -105, -122, -141, -131, -115, -105, -96, -89, -77, -72, -68, -54, -35, -32, -32, -23, -14, -7, 0, 4, 4, 9, 14, 18, 21, 28, 30, 30]"
1713644664174381777,"[30, 37, 49, 54, 47, 30, 25, 35, 42, 28, 14, 21, 30, 32, 39, 47, 49, 51, 54, 58, 61, 63, 68, 68, 65, 77, 87, 79, 79, 89, 87, 89, 91, 89, 91, 96, 87, 75, 75, 70, 49, 42, 56, 58, 56, 63, 70, 72, 70, 72, 77, 84, 87, 87, 87, 96, 115, 129, 129, 110, 96, 87, 75, 77, 87, 94, 96, 94, 91, 79, 65, 96, 333]"
1713644664735511156,"[832, 1248, 997, 103, -319, 42, 124, -108, -51, 49, -11, -16, 30, 23, 23, 47, 56, 61, 72, 82, 98, 115, 122, 134, 152, 174, 202, 232, 251, 268, 293, 317, 317, 284, 244, 192, 119, 51, -2, -58, -98, -119, -145, -152, -131, -124, -127, -117, -108, -98, -87, -75, -65, -65, -61, -44, -32, -25, -21, -21, -25, -21, -7, 2, 0, -4, -4, 9, 25, 28, 21, 23, 25]"
1713644665296671057,"[35, 47, 49, 37, 16, 14, 32, 47, 47, 47, 42, 47, 54, 61, 70, 70, 61, 68, 72, 65, 63, 63, 56, 61, 68, 63, 39, 28, 35, 49, 56, 56, 63, 65, 61, 70, 82, 79, 79, 87, 82, 87, 96, 98, 101, 96, 84, 91, 105, 110, 108, 101, 87, 87, 101, 101, 101, 103, 96, 108, 141, 155, 136, 108, 101, 105, 103, 98, 98, 101, 101, 101, 112]"
1713644665857800436,"[112, 91, 150, 486, 1027, 1293, 780, -129, -277, 119, 58, -119, -4, 32, -35, 0, 44, 30, 28, 30, 30, 39, 54, 65, 82, 96, 112, 141, 162, 174, 204, 246, 279, 305, 326, 336, 341, 336, 301, 225, 141, 65, 0, -63, -103, -117, -117, -112, -115, -115, -108, -96, -77, -70, -75, -63, -49, -44, -30, -23, -28, -14, 0, -2, 7, 16, 16, 25, 30, 25, 30, 39, 39]"
1713644666418929815,"[35, 25, 16, 25, 32, 30, 39, 44, 35, 37, 30, -2, -14, -2, 4, 4, 7, 23, 39, 32, 30, 42, 42, 42, 54, 58, 56, 65, 65, 61, 72, 77, 68, 70, 72, 70, 72, 79, 82, 79, 84, 91, 89, 94, 110, 115, 115, 122, 105, 84, 84, 84, 77, 82, 94, 94, 89, 84, 87, 84, 230, 686, 1194, 1185, 406, -310, -127, 159, -35, -91, 42, 21, -16]"
1713644666980089712,"[30, 42, 25, 44, 51, 30, 25, 23, 14, 32, 63, 79, 98, 119, 138, 166, 202, 242, 270, 282, 284, 282, 261, 204, 112, 18, -44, -87, -117, -129, -141, -155, -150, -129, -117, -112, -101, -96, -89, -72, -61, -56, -51, -47, -32, -18, -16, -2, 7, -4, 4, 25, 30, 28, 28, 23, 16, 14, 18, 28, 23, 21, 30, 42, 49, 49, 47, 51, 56, 58, 47, 25, 21]"
1713644667541219091,"[30, 37, 44, 51, 54, 49, 49, 58, 68, 72, 72, 70, 68, 75, 84, 77, 47, 28, 39, 49, 51, 58, 61, 56, 61, 68, 72, 72, 79, 79, 75, 82, 94, 91, 87, 91, 91, 91, 96, 101, 101, 98, 96, 101, 108, 108, 101, 98, 98, 112, 124, 112, 94, 87, 79, 77, 82, 87, 84, 87, 84, 82, 63, 28, 108, 484, 1016, 1222, 653, -204, -246, 131, 25]"
1713644668102373905,"[-112, 9, 25, -25, 16, 42, 14, 4, 9, 14, 28, 42, 54, 65, 75, 94, 110, 117, 138, 169, 195, 230, 256, 261, 272, 272, 256, 230, 176, 101, 35, -18, -61, -82, -96, -105, -105, -105, -110, -105, -91, -84, -79, -70, -58, -49, -39, -30, -23, -23, -16, 4, 11, 7, 9, 4, -14, -14, 0, 2, -2, 4, 16, 25, 30, 25, 25, 37, 47, 51, 44, 30, 28]"
1713644668663508367,"[37, 44, 54, 56, 47, 28, 25, 44, 58, 54, 49, 51, 61, 65, 72, 77, 72, 70, 82, 91, 91, 91, 91, 84, 91, 103, 105, 101, 94, 89, 79, 79, 91, 94, 84, 84, 98, 101, 98, 98, 94, 91, 105, 115, 112, 108, 96, 79, 72, 70, 79, 82, 79, 98, 119, 117, 110, 94, 72, 72, 82, 70, 65, 75, 65, 63, 79, 77, 108, 373, 886, 1248, 919]"
1713644669224642837,"[23, -305, 79, 127, -82, 0, 84, 21, 21, 56, 54, 68, 84, 79, 68, 65, 82, 105, 122, 131, 129, 124, 150, 188, 218, 244, 256, 265, 291, 303, 296, 272, 211, 134, 72, 21, -30, -70, -91, -101, -108, -129, -134, -117, -112, -105, -87, -68, -61, -56, -49, -42, -39, -35, -30, -23, -14, -11, -7, 9, 21, 18, 14, 18, 32, 42, 39, 39, 44, 49, 61, 68, 68]"
1713644669785777303,"[65, 63, 70, 77, 82, 77, 79, 87, 87, 89, 91, 91, 84, 79, 84, 91, 84, 65, 58, 70, 75, 75, 79, 79, 79, 84, 87, 87, 89, 87, 87, 94, 91, 72, 47, 54, 91, 101, 87, 82, 75, 54, 54, 61, 44, 39, 51, 51, 58, 65, 61, 192, 627, 1133, 1168, 430, -317, -157, 164, -7, -75, 51, 37, -2, 37, 56, 51, 63, 72, 75, 84, 98, 110]"
1713644670346927026,"[117, 129, 145, 152, 157, 178, 206, 232, 258, 272, 284, 293, 293, 258, 202, 136, 65, -2, -56, -98, -127, -136, -131, -119, -117, -129, -143, -136, -112, -98, -91, -89, -82, -65, -56, -58, -61, -51, -42, -32, -23, -11, 2, -2, -4, 9, 16, 18, 23, 21, 21, 32, 47, 51, 49, 42, 39, 51, 70, 72, 63, 61, 68, 75, 79, 82, 79, 68, 61, 70, 79, 87, 87]"
1713644670908056405,"[77, 75, 89, 96, 96, 91, 87, 87, 94, 101, 103, 89, 68, 63, 75, 87, 89, 79, 68, 54, 44, 58, 84, 91, 79, 65, 49, 32, 35, 39, 35, 42, 56, 58, 61, 61, 44, 117, 472, 1013, 1267, 743, -152, -268, 134, 75, -94, 9, 47, -2, 28, 56, 44, 49, 68, 70, 79, 98, 98, 94, 108, 129, 148, 166, 188, 209, 239, 275, 310, 341, 355, 355, 343]"
1713644671469185784,"[315, 258, 185, 112, 54, 7, -23, -32, -51, -84, -101, -96, -103, -115, -112, -112, -115, -127, -129, -110, -101, -98, -89, -77, -70, -58, -54, -49, -39, -32, -28, -23, -18, -11, -7, -7, 0, 9, 11, 14, 21, 25, 32, 37, 35, 39, 51, 54, 49, 42, 32, 39, 49, 49, 51, 61, 63, 63, 68, 70, 72, 79, 77, 79, 89, 89, 84, 91, 94, 94, 94, 91, 94]"
1713644672030345685,"[96, 96, 98, 101, 79, 47, 30, 28, 21, 18, 25, 30, 32, 39, 49, 56, 58, 61, 63, 82, 105, 110, 96, 87, 72, 65, 75, 82, 79, 77, 79, 89, 94, 89, 79, 183, 573, 1100, 1246, 595, -235, -202, 148, 16, -89, 35, 35, -18, 25, 54, 42, 56, 70, 65, 79, 101, 108, 115, 127, 131, 150, 178, 204, 228, 251, 282, 315, 343, 357, 348, 303, 254, 199]"
1713644672591475064,"[124, 56, 4, -58, -103, -101, -94, -91, -87, -87, -82, -65, -49, -47, -58, -56, -44, -37, -32, -32, -37, -49, -51, -37, -28, -23, -23, -32, -28, -11, -14, -23, -30, -30, -25, -14, -4, 2, 2, -2, 7, 21, 28, 35, 32, 25, 32, 47, 56, 58, 54, 49, 54, 68, 75, 75, 65, 63, 70, 82, 87, 89, 79, 49, 32, 54, 65, 58, 54, 58, 65, 72, 77]"
1713644673152614617,"[79, 79, 77, 87, 94, 96, 96, 96, 91, 91, 101, 103, 87, 68, 75, 87, 91, 94, 89, 96, 119, 129, 110, 84, 70, 65, 63, 70, 77, 79, 79, 82, 79, 82, 82, 150, 482, 1016, 1267, 757, -119, -249, 141, 87, -82, 25, 75, 16, 32, 65, 54, 58, 87, 94, 84, 68, 54, 68, 94, 101, 115, 143, 169, 197, 235, 268, 298, 326, 341, 333, 319, 289, 237]"
1713644673713764340,"[162, 77, 9, -42, -87, -108, -110, -117, -117, -122, -131, -119, -103, -115, -119, -105, -96, -82, -68, -65, -58, -44, -35, -25, -16, -14, -7, -4, -2, 7, 14, 14, 16, 23, 28, 32, 35, 35, 35, 37, 42, 49, 54, 51, 56, 56, 47, 44, 28, 9, 16, 28, 28, 37, 47, 44, 44, 51, 54, 61, 65, 65, 65, 68, 75, 79, 82, 79, 77, 77, 89, 94, 91]"
1713644674274893719,"[96, 94, 94, 110, 122, 110, 84, 54, 37, 42, 51, 49, 47, 49, 56, 65, 72, 68, 51, 141, 524, 1058, 1237, 618, -235, -235, 150, 37, -94, 30, 39, -18, 25, 58, 42, 54, 58, 47, 58, 84, 79, 61, 58, 82, 108, 129, 159, 185, 209, 246, 286, 312, 331, 336, 315, 263, 195, 127, 63, -2, -63, -98, -108, -122, -129, -129, -129, -122, -115, -122, -117, -105, -105]"
1713644674836023098,"[-98, -77, -63, -58, -56, -54, -42, -28, -18, -18, -35, -42, -25, -11, -9, -4, -7, -11, -2, 14, 21, 21, 16, 18, 28, 37, 42, 37, 28, 25, 35, 47, 51, 42, 18, 14, 32, 42, 42, 42, 42, 47, 58, 61, 63, 63, 63, 63, 68, 77, 79, 75, 75, 82, 84, 89, 91, 87, 87, 79, 68, 70, 77, 77, 75, 75, 79, 87, 89, 89, 91, 98, 105]"
1713644675397182995,"[119, 127, 122, 98, 77, 77, 82, 65, 49, 58, 63, 63, 68, 56, 75, 317, 816, 1222, 980, 89, -345, 11, 117, -98, -47, 42, -21, -47, -14, -4, -4, 9, 23, 37, 49, 58, 70, 82, 101, 117, 129, 152, 181, 209, 244, 279, 301, 319, 331, 329, 301, 237, 157, 84, 18, -35, -58, -77, -105, -119, -122, -127, -122, -110, -105, -103, -98, -87, -70, -61, -61, -58, -49]"
1713644675958312378,"[-37, -25, -21, -23, -21, -14, -4, 0, -2, -4, -23, -42, -30, -11, -11, -14, -9, -2, 2, -11, -28, -21, -9, -4, 4, 18, 23, 18, 23, 32, 39, 44, 51, 49, 49, 56, 68, 72, 72, 72, 72, 70, 61, 61, 68, 65, 63, 75, 79, 79, 84, 82, 77, 89, 98, 96, 94, 94, 94, 101, 105, 108, 108, 101, 96, 108, 117, 119, 115, 110, 124, 150, 155]"
1713644676519451931,"[134, 103, 77, 75, 87, 89, 89, 87, 82, 84, 89, 68, 54, 223, 682, 1150, 1055, 225, -364, -77, 134, -72, -68, 47, 9, -14, 28, 35, 37, 58, 72, 70, 72, 77, 82, 98, 115, 124, 143, 171, 199, 235, 265, 293, 324, 352, 369, 371, 350, 301, 228, 150, 91, 37, -18, -54, -63, -70, -77, -84, -87, -89, -94, -89, -84, -89, -91, -82, -77, -65, -49, -44, -42]"
1713644677080586397,"[-30, -23, -18, -7, -14, -35, -37, -23, -14, -9, -14, -25, -23, -9, -2, 2, 7, 9, 16, 21, 30, 39, 37, 28, 25, 28, 35, 42, 42, 47, 56, 58, 58, 68, 72, 70, 72, 75, 84, 89, 82, 87, 98, 96, 101, 105, 101, 101, 108, 124, 143, 138, 112, 101, 96, 87, 72, 65, 72, 79, 79, 84, 87, 75, 129, 463, 1008, 1293, 797, -119, -301, 89, 51]"
1713644677641731033,"[-119, -14, 32, -25, 0, 37, 23, 25, 30, 30, 49, 65, 68, 77, 89, 94, 108, 134, 157, 181, 216, 261, 303, 324, 336, 343, 336, 305, 244, 164, 91, 28, -11, -35, -49, -54, -61, -75, -75, -61, -51, -54, -61, -68, -65, -63, -65, -77, -87, -82, -63, -54, -47, -39, -37, -37, -25, -16, -11, -9, -11, -11, -7, -21, -35, -25, -21, -16, -4, 7, 14, 16, 14]"
1713644678202860412,"[16, 30, 39, 44, 47, 44, 35, 35, 47, 54, 47, 28, 23, 37, 49, 56, 56, 49, 54, 68, 72, 75, 75, 70, 75, 84, 89, 91, 89, 84, 89, 96, 98, 103, 101, 94, 98, 103, 94, 89, 101, 112, 110, 105, 96, 84, 72, 68, 77, 89, 91, 89, 87, 82, 72, 87, 293, 783, 1225, 1011, 115, -348, 7, 127, -96, -56, 44, -2, -4, 42, 25, 7, 32]"
1713644678763989791,"[54, 56, 61, 72, 82, 96, 115, 127, 127, 134, 162, 197, 232, 268, 291, 308, 319, 324, 308, 261, 188, 115, 51, 4, -21, -39, -56, -61, -61, -68, -75, -68, -65, -75, -70, -56, -49, -56, -61, -61, -63, -65, -58, -54, -56, -47, -39, -42, -54, -72, -70, -54, -54, -49, -37, -37, -30, -21, -21, -14, -2, -4, -14, -9, -2, 7, 11, 14, 21, 23, 25, 30, 35]"
1713644679325124261,"[37, 44, 49, 47, 49, 42, 25, 35, 47, 44, 47, 51, 51, 58, 63, 61, 63, 68, 68, 70, 61, 47, 51, 61, 56, 65, 75, 70, 70, 75, 77, 82, 87, 87, 84, 98, 122, 129, 115, 96, 82, 65, 47, 49, 58, 54, 51, 56, 63, 63, 54, 143, 508, 1037, 1227, 620, -218, -221, 131, 11, -110, 16, 30, -25, 4, 32, 28, 44, 63, 58, 61, 77, 91]"
1713644679886279071,"[103, 115, 124, 136, 162, 188, 221, 249, 261, 272, 301, 317, 310, 296, 263, 195, 129, 70, 18, -30, -63, -75, -72, -72, -68, -63, -61, -54, -44, -35, -30, -39, -47, -42, -51, -68, -68, -63, -77, -84, -65, -54, -56, -61, -68, -56, -44, -39, -35, -30, -35, -30, -14, -9, -4, 2, 4, 7, 16, 23, 28, 28, 25, 35, 44, 44, 51, 51, 47, 49, 56, 63, 70]"
1713644680447408450,"[68, 65, 61, 54, 61, 70, 58, 54, 68, 77, 77, 68, 49, 44, 61, 70, 75, 77, 72, 65, 87, 117, 129, 117, 96, 82, 75, 61, 44, 42, 44, 44, 58, 70, 56, 28, 82, 399, 936, 1251, 811, -105, -331, 84, 96, -91, 0, 58, -2, 14, 56, 51, 56, 72, 75, 84, 101, 108, 115, 134, 150, 157, 178, 214, 242, 272, 298, 315, 338, 371, 381, 362, 322]"
1713644681008537829,"[256, 178, 108, 42, -9, -39, -61, -68, -72, -98, -112, -96, -87, -84, -87, -91, -89, -89, -91, -91, -105, -115, -96, -79, -79, -82, -84, -77, -63, -58, -54, -44, -39, -37, -23, -16, -16, -7, 0, 2, 9, 16, 16, 23, 30, 30, 39, 49, 47, 49, 56, 58, 61, 63, 63, 65, 72, 70, 61, 58, 61, 58, 63, 82, 87, 82, 87, 101, 115, 122, 115, 96, 82]"
1713644681569692643,"[77, 77, 84, 91, 89, 79, 65, 58, 61, 65, 211, 672, 1194, 1190, 381, -350, -152, 122, -77, -119, 11, -9, -37, 9, 16, 9, 35, 56, 56, 61, 75, 91, 103, 119, 136, 148, 166, 199, 239, 275, 308, 326, 348, 373, 378, 348, 291, 209, 122, 54, 2, -30, -51, -68, -72, -63, -56, -47, -39, -47, -42, -23, -14, -11, -11, -9, -2, 9, 21, 30, 30, 23, 25]"
1713644682130827105,"[32, 30, 25, 25, 11, -9, -32, -42, -56, -89, -103, -84, -70, -65, -56, -56, -58, -47, -32, -28, -23, -18, -16, -11, 2, 11, 14, 9, 11, 23, 32, 37, 39, 39, 44, 49, 58, 63, 63, 54, 37, 39, 54, 61, 61, 56, 56, 63, 75, 82, 79, 75, 77, 84, 89, 94, 94, 94, 96, 98, 103, 117, 134, 136, 127, 117, 110, 98, 91, 91, 91, 82, 61]"
1713644682691961575,"[56, 65, 65, 47, 63, 291, 794, 1244, 1058, 157, -355, -9, 131, -96, -61, 42, -7, -7, 39, 32, 28, 51, 65, 68, 77, 91, 101, 110, 127, 145, 159, 169, 188, 221, 256, 286, 312, 341, 352, 343, 322, 272, 197, 127, 68, 14, -16, -30, -44, -47, -42, -39, -32, -28, -25, -14, -7, -2, 4, 7, 9, 18, 16, 0, -23, -37, -23, -4, -11, -23, -21, -16, -14]"
1713644683253096041,"[-9, -16, -25, -30, -35, -37, -25, -25, -28, -32, -44, -49, -32, -21, -23, -25, -18, -11, -2, 4, 7, 7, 4, 2, 11, 21, 21, 21, 25, 37, 44, 47, 49, 47, 51, 61, 68, 68, 65, 65, 70, 77, 82, 84, 79, 77, 82, 89, 94, 94, 84, 84, 96, 96, 77, 68, 63, 49, 44, 56, 65, 65, 58, 61, 68, 79, 87, 84, 89, 105, 119, 115, 105]"
1713644683814245764,"[89, 70, 72, 84, 87, 89, 82, 58, 51, 65, 56, 77, 319, 820, 1241, 1013, 110, -343, 14, 117, -96, -39, 54, -2, -7, 32, 28, 32, 58, 68, 63, 68, 82, 98, 112, 127, 138, 150, 174, 204, 237, 275, 301, 322, 345, 348, 333, 317, 265, 164, 70, 18, -18, -61, -98, -119, -108, -96, -101, -103, -105, -108, -108, -103, -91, -84, -87, -82, -65, -49, -44, -47, -47]"
1713644684375375143,"[-32, -21, -21, -16, -16, -25, -21, -2, 2, -9, -23, -28, -16, -7, 4, 11, 4, 2, 11, 23, 35, 35, 32, 39, 47, 44, 49, 58, 58, 61, 68, 70, 70, 75, 77, 72, 65, 61, 65, 68, 68, 63, 44, 32, 42, 47, 49, 56, 58, 63, 65, 63, 68, 77, 82, 84, 87, 87, 87, 91, 91, 96, 101, 101, 103, 112, 124, 131, 124, 101, 94, 91, 84]"
1713644684936504522,"[87, 91, 89, 91, 96, 96, 91, 65, 75, 324, 844, 1241, 964, 58, -362, 21, 143, -75, -30, 61, 4, 4, 54, 47, 42, 63, 68, 56, 44, 51, 68, 77, 82, 96, 96, 79, 91, 138, 183, 216, 249, 277, 286, 277, 258, 214, 141, 56, -14, -61, -87, -101, -110, -119, -119, -105, -89, -77, -77, -87, -94, -79, -61, -51, -42, -35, -28, -18, -7, 0, 7, 14, 16]"
1713644685497664423,"[18, 28, 37, 37, 18, 0, 9, 28, 30, 25, 25, 28, 37, 47, 54, 51, 44, 47, 47, 39, 47, 51, 44, 47, 61, 65, 65, 58, 35, 30, 49, 56, 56, 61, 54, 56, 72, 77, 77, 77, 72, 75, 87, 91, 91, 89, 82, 84, 94, 98, 89, 72, 70, 79, 89, 105, 119, 117, 96, 84, 82, 79, 82, 77, 70, 75, 87, 89, 84, 68, 72, 275, 769]"
1713644686058793802,"[1241, 1110, 232, -348, -32, 169, -51, -61, 25, -30, -47, 4, 9, 2, 18, 28, 35, 54, 70, 77, 65, 51, 65, 89, 103, 131, 162, 188, 214, 246, 265, 263, 258, 244, 206, 141, 65, 0, -54, -91, -110, -124, -138, -138, -129, -119, -105, -89, -84, -82, -68, -58, -49, -35, -30, -25, -16, -11, -2, 14, 18, 14, 21, 28, 30, 35, 37, 37, 42, 44, 47, 51, 51]"
1713644686619933355,"[44, 30, 32, 49, 49, 44, 51, 56, 51, 56, 56, 37, 32, 25, 4, 11, 25, 23, 32, 42, 39, 47, 56, 54, 58, 68, 68, 68, 75, 75, 77, 82, 72, 61, 61, 65, 72, 77, 79, 77, 75, 79, 89, 91, 89, 89, 91, 91, 96, 98, 94, 91, 91, 96, 101, 101, 98, 96, 96, 101, 103, 110, 129, 141, 127, 101, 89, 89, 75, 70, 75, 79, 82]"
1713644687181067821,"[89, 89, 82, 70, 84, 272, 724, 1157, 1034, 202, -369, -82, 115, -101, -103, 16, -18, -32, 18, 16, 4, 30, 49, 39, 37, 47, 56, 68, 89, 103, 105, 112, 141, 178, 204, 230, 254, 263, 268, 277, 270, 230, 164, 87, 16, -28, -61, -84, -96, -110, -110, -91, -79, -77, -70, -72, -75, -61, -42, -35, -39, -37, -16, 0, 0, 9, 11, 7, 14, 28, 30, 28, 11]"
1713644687742212457,"[-4, 4, 18, 23, 30, 30, 21, 30, 44, 49, 44, 28, 18, 30, 32, 21, 28, 28, 21, 37, 54, 54, 56, 56, 54, 68, 75, 75, 79, 79, 82, 84, 87, 94, 98, 87, 84, 96, 101, 101, 101, 98, 94, 98, 110, 110, 103, 96, 91, 91, 101, 103, 101, 98, 98, 108, 115, 110, 101, 110, 138, 150, 138, 127, 103, 68, 58, 79, 82, 70, 75, 82, 84]"
1713644688303341836,"[82, 82, 209, 625, 1131, 1185, 465, -303, -190, 131, -25, -108, 16, 16, -23, 14, 35, 28, 44, 63, 65, 75, 94, 101, 108, 122, 127, 131, 155, 178, 206, 237, 258, 284, 305, 305, 308, 301, 254, 181, 108, 35, -25, -68, -103, -119, -119, -117, -112, -105, -101, -91, -82, -75, -68, -58, -54, -56, -70, -72, -54, -44, -37, -21, -14, -16, -9, -4, 2, 2, -9, -16, -7]"
1713644688864471215,"[-2, 7, 16, 16, 16, 11, 0, 4, 23, 23, 18, 25, 32, 35, 42, 47, 44, 49, 54, 54, 61, 65, 63, 58, 61, 75, 79, 75, 70, 63, 63, 72, 79, 82, 77, 72, 75, 84, 91, 89, 87, 87, 94, 96, 103, 117, 127, 117, 108, 98, 82, 54, 32, 39, 54, 56, 63, 65, 56, 44, 82, 336, 846, 1232, 905, -11, -350, 49, 108, -103, -39, 39, -9]"
1713644689425631116,"[0, 39, 25, 7, 21, 37, 49, 63, 70, 72, 87, 110, 129, 148, 164, 178, 202, 235, 270, 301, 305, 296, 291, 270, 206, 138, 65, -9, -61, -82, -101, -112, -119, -119, -108, -94, -84, -77, -75, -68, -56, -47, -42, -56, -75, -63, -39, -32, -25, -16, -14, -16, -18, -16, -7, -2, -4, -2, 7, 16, 21, 25, 25, 28, 35, 42, 49, 54, 51, 49, 56, 65, 65]"
1713644689986760495,"[63, 65, 68, 68, 70, 77, 79, 75, 75, 79, 82, 58, 28, 25, 37, 39, 51, 56, 49, 49, 63, 70, 72, 72, 72, 72, 75, 84, 89, 82, 82, 89, 91, 94, 101, 96, 72, 58, 70, 77, 75, 77, 77, 68, 58, 65, 82, 98, 110, 105, 91, 79, 72, 65, 75, 82, 77, 77, 87, 84, 84, 75, 115, 409, 931, 1251, 856, -25, -279, 101, 105, -79, 11]"
1713644690547920392,"[68, 0, 4, 35, 25, 39, 58, 56, 54, 54, 56, 75, 87, 96, 119, 136, 152, 188, 221, 244, 275, 303, 319, 324, 317, 298, 251, 169, 63, -21, -63, -98, -134, -152, -157, -162, -159, -148, -136, -124, -112, -96, -84, -82, -75, -61, -47, -37, -30, -25, -21, -16, -4, 9, 14, 11, 14, 18, 28, 32, 35, 32, 28, 37, 49, 49, 42, 30, 30, 39, 49, 56, 58]"
1713644691109049771,"[56, 58, 70, 77, 82, 79, 58, 44, 58, 75, 72, 72, 70, 70, 82, 89, 91, 94, 89, 91, 84, 63, 61, 72, 61, 51, 54, 61, 75, 77, 70, 70, 82, 91, 101, 96, 84, 94, 110, 110, 110, 119, 131, 143, 141, 127, 112, 103, 98, 101, 105, 115, 129, 119, 103, 105, 110, 230, 653, 1159, 1178, 435, -282, -112, 195, 16, -54, 72, 54, 18, 72, 82, 58]"
1713644691670179150,"[72, 91, 103, 115, 119, 124, 134, 152, 171, 166, 164, 190, 218, 232, 261, 303, 319, 317, 338, 338, 277, 197, 129, 58, -7, -56, -94, -124, -141, -136, -127, -117, -108, -108, -101, -91, -82, -68, -56, -54, -44, -35, -28, -18, -9, -9, -9, -7, -9, -16, -11, -2, 0, 0, 11, 18, 14, 18, 25, 28, 32, 37, 42, 47, 51, 51, 56, 65, 63, 63, 70, 68, 68]"
1713644692231308529,"[77, 77, 77, 82, 79, 70, 49, 37, 39, 42, 37, 42, 47, 30, 30, 47, 54, 68, 79, 82, 82, 72, 51, 49, 58, 58, 65, 70, 68, 75, 79, 70, 77, 239, 691, 1197, 1178, 369, -331, -112, 152, -47, -87, 32, 11, -11, 35, 37, 23, 51, 70, 68, 77, 89, 96, 108, 124, 141, 155, 174, 199, 228, 263, 305, 333, 345, 359, 366, 348, 301, 228, 129, 39]"
1713644692792468430,"[-9, -32, -58, -91, -117, -127, -117, -105, -98, -96, -108, -108, -96, -101, -108, -91, -82, -79, -70, -58, -54, -49, -42, -39, -35, -14, -7, -25, -28, -14, -14, -23, -23, -18, -18, -9, 4, 11, 16, 14, 11, 18, 28, 42, 47, 35, 37, 51, 58, 65, 63, 56, 61, 75, 84, 82, 79, 75, 77, 87, 89, 98, 91, 58, 44, 49, 49, 54, 54, 51, 61, 65, 65]"
1713644693353597809,"[75, 79, 72, 75, 87, 87, 87, 91, 89, 91, 112, 134, 127, 96, 72, 72, 70, 68, 75, 72, 65, 58, 61, 63, 56, 42, 119, 465, 997, 1253, 733, -150, -263, 122, 70, -79, 14, 39, -7, 28, 56, 44, 54, 65, 70, 82, 96, 108, 117, 119, 129, 150, 169, 183, 204, 230, 256, 268, 275, 296, 312, 305, 275, 225, 162, 96, 42, -7, -42, -56, -56, -61, -65]"
1713644693914727188,"[-63, -51, -39, -32, -25, -21, -23, -28, -23, -23, -35, -39, -44, -63, -65, -61, -70, -70, -65, -58, -44, -39, -47, -39, -30, -30, -23, -14, -14, -9, -2, 4, 14, 14, 14, 25, 30, 28, 32, 39, 42, 49, 54, 56, 51, 39, 37, 49, 51, 35, 18, 14, 21, 30, 42, 49, 44, 47, 54, 63, 68, 68, 68, 70, 72, 79, 82, 79, 84, 91, 94, 96, 98]"
1713644694475856567,"[96, 94, 98, 98, 89, 82, 87, 75, 61, 72, 98, 110, 108, 96, 82, 75, 79, 84, 79, 77, 82, 89, 96, 96, 87, 75, 192, 606, 1135, 1241, 555, -237, -143, 190, 28, -70, 42, 23, -9, 47, 58, 39, 44, 42, 42, 65, 82, 84, 89, 103, 131, 150, 171, 195, 216, 246, 284, 322, 352, 366, 366, 357, 326, 270, 202, 129, 61, 0, -37, -49, -51, -61, -65]"
1713644695036985946,"[-56, -51, -56, -49, -39, -47, -49, -42, -32, -37, -63, -79, -65, -51, -44, -32, -32, -42, -32, -14, -9, -11, -7, -2, 0, 4, 4, 0, -2, 0, 4, 16, 28, 32, 25, 4, -4, 16, 32, 35, 35, 35, 42, 51, 58, 65, 65, 61, 65, 77, 82, 82, 89, 91, 87, 91, 101, 103, 91, 77, 72, 84, 89, 87, 103, 124, 134, 124, 103, 89, 84, 87, 87]"
1713644695598145847,"[87, 89, 94, 94, 89, 89, 87, 138, 451, 994, 1270, 757, -150, -289, 122, 75, -108, 4, 49, -25, -4, 37, 23, 28, 54, 61, 63, 51, 37, 56, 87, 98, 110, 136, 159, 188, 225, 268, 308, 331, 348, 359, 350, 310, 251, 176, 96, 32, -9, -42, -87, -117, -110, -94, -103, -110, -103, -103, -110, -108, -101, -96, -89, -75, -68, -63, -58, -47, -35, -28, -23, -18, -18]"
1713644696159275226,"[-9, 2, 0, -4, -7, -14, -16, -4, -7, -21, -16, -9, -7, 2, 11, 18, 18, 18, 28, 23, -4, -2, 16, 16, 18, 37, 42, 39, 39, 44, 51, 65, 68, 65, 68, 72, 79, 82, 82, 84, 79, 72, 82, 91, 82, 79, 87, 87, 89, 98, 98, 91, 89, 101, 110, 110, 122, 141, 136, 119, 105, 96, 96, 96, 89, 91, 96, 98, 101, 98, 87, 77, 181]"
1713644696720404605,"[569, 1098, 1244, 573, -251, -183, 164, 11, -115, -7, 7, -37, -28, -23, -25, -4, 11, 16, 35, 49, 49, 63, 91, 105, 117, 138, 164, 192, 225, 263, 301, 319, 317, 319, 322, 296, 235, 152, 75, 25, -7, -37, -56, -72, -91, -87, -72, -68, -65, -70, -77, -75, -75, -75, -65, -61, -63, -54, -35, -28, -30, -28, -28, -21, -21, -30, -25, -21, -25, -16, 0, 9, 2]"
1713644697281533984,"[-2, 7, 14, 23, 14, -11, -18, -9, -4, 14, 25, 2, -18, -2, 16, 23, 28, 32, 32, 35, 44, 49, 51, 47, 42, 49, 61, 65, 65, 63, 65, 68, 72, 79, 79, 77, 87, 89, 84, 96, 101, 91, 89, 96, 101, 103, 101, 101, 101, 98, 103, 108, 105, 105, 105, 89, 75, 84, 94, 87, 84, 96, 117, 129, 115, 105, 105, 89, 82, 89, 79, 63, 58]"
1713644697842663363,"[58, 63, 68, 56, 58, 232, 686, 1171, 1124, 308, -341, -91, 138, -70, -94, 16, -18, -35, 14, 21, 7, 23, 42, 47, 54, 70, 75, 84, 110, 124, 131, 155, 181, 206, 242, 272, 301, 324, 341, 343, 338, 305, 235, 155, 79, 14, -35, -70, -94, -110, -117, -115, -119, -124, -110, -98, -101, -89, -70, -65, -68, -61, -54, -49, -56, -63, -61, -54, -42, -28, -18, -18, -21]"
1713644698403792742,"[-21, -9, 9, 16, 9, -4, -2, 11, 16, 23, 35, 18, -4, 11, 30, 30, 35, 39, 39, 47, 58, 68, 68, 61, 61, 72, 77, 82, 91, 87, 84, 89, 94, 101, 108, 101, 91, 87, 82, 87, 89, 89, 91, 96, 101, 108, 105, 96, 103, 110, 112, 115, 115, 122, 148, 155, 129, 84, 56, 56, 63, 65, 79, 91, 82, 75, 87, 89, 96, 291, 769, 1208, 1039]"
