time,ecg
1714134270975503000,"[13181, 13656, 14113, 14533, 14899, 15259, 15630, 15968, 16251, 16520, 16781, 17023, 17263, 17483, 17665, 17831, 17986, 18137, 18288, 18401, 18494, 18581, 18645, 18715, 18801, 18842, 18875, 18940, 18926, 18885, 18952, 18947, 18820, 18789, 18796, 18746, 18701, 18653, 18590, 18533, 18466, 18423, 18351, 18212, 18104, 18027, 17907, 17809, 17723, 17593, 17478, 17380, 17239, 17128, 17222, 17603, 17960, 17588, 16532, 16045, 16275, 16143, 15801, 15750, 15664, 15463, 15350, 15249, 15074, 14902, 14782, 14662, 14504]"
1714134271536540825,"[14353, 14252, 14125, 13977, 13857, 13720, 13591, 13473, 13313, 13188, 13100, 12913, 12723, 12618, 12474, 12280, 12093, 11894, 11717, 11547, 11348, 11194, 11101, 10952, 10753, 10626, 10530, 10401, 10279, 10156, 10025, 9924, 9833, 9704, 9569, 9457, 9354, 9258, 9145, 9013, 8903, 8805, 8692, 8582, 8484, 8381, 8266, 8146, 8057, 7976, 7868, 7733, 7614, 7527, 7439, 7350, 7261, 7161, 7062, 6974, 6897, 6840, 6756, 6629, 6516, 6434, 6351, 6269, 6188, 6097, 6013, 5946, 5869]"
1714134272097609168,"[5775, 5749, 5982, 6432, 6562, 5883, 5064, 5064, 5282, 5054, 4893, 4932, 4862, 4764, 4726, 4683, 4608, 4524, 4464, 4424, 4366, 4313, 4270, 4222, 4189, 4150, 4105, 4076, 4057, 4028, 4000, 3949, 3882, 3827, 3762, 3674, 3575, 3451, 3336, 3259, 3192, 3122, 3060, 2995, 2952, 2923, 2897, 2868, 2830, 2787, 2753, 2732, 2710, 2684, 2645, 2609, 2585, 2559, 2533, 2511, 2480, 2434, 2406, 2391, 2358, 2322, 2300, 2264, 2224, 2207, 2185, 2149, 2116]"
1714134272658677511,"[2087, 2046, 2010, 1998, 1979, 1948, 1924, 1895, 1874, 1859, 1831, 1797, 1771, 1723, 1692, 1687, 1656, 1603, 1579, 1572, 1565, 1545, 1505, 1488, 1730, 2322, 2763, 2324, 1330, 1085, 1466, 1409, 1205, 1277, 1291, 1212, 1229, 1255, 1231, 1217, 1217, 1210, 1200, 1200, 1205, 1203, 1198, 1205, 1205, 1210, 1227, 1234, 1234, 1241, 1224, 1195, 1181, 1157, 1102, 1028, 958, 903, 865, 829, 783, 740, 716, 702, 692, 685, 680, 680, 678]"
1714134273219745854,"[678, 678, 659, 632, 630, 630, 625, 627, 608, 584, 591, 601, 596, 587, 579, 584, 589, 579, 582, 587, 572, 570, 579, 565, 544, 536, 541, 539, 536, 539, 539, 532, 524, 539, 558, 570, 563, 534, 512, 512, 505, 498, 498, 496, 491, 496, 491, 460, 522, 922, 1543, 1732, 1004, 172, 273, 565, 369, 285, 409, 388, 342, 383, 395, 383, 397, 409, 400, 383, 371, 381, 402, 409, 421]"
1714134273780814197,"[445, 467, 488, 512, 517, 488, 469, 481, 481, 455, 412, 345, 282, 249, 218, 167, 136, 127, 115, 117, 139, 141, 134, 141, 155, 162, 170, 174, 172, 174, 189, 196, 196, 194, 198, 203, 206, 210, 218, 218, 215, 210, 210, 220, 222, 222, 220, 203, 196, 213, 225, 213, 201, 215, 227, 218, 220, 237, 220, 198, 191, 196, 225, 242, 215, 179, 179, 191, 191, 189, 189, 189, 203]"
1714134274341852026,"[218, 198, 201, 455, 1013, 1380, 917, 19, -141, 230, 184, 28, 129, 172, 112, 131, 177, 174, 172, 186, 189, 189, 208, 234, 261, 268, 270, 287, 313, 340, 361, 378, 385, 385, 381, 385, 371, 304, 220, 158, 115, 88, 69, 55, 40, 35, 40, 38, 31, 28, 21, 16, 9, -4, 7, 23, 23, 26, 40, 52, 57, 57, 62, 76, 88, 88, 83, 83, 88, 86, 81, 79, 83]"
1714134274902920369,"[93, 98, 100, 110, 129, 143, 155, 155, 129, 110, 119, 107, 81, 88, 105, 112, 115, 110, 105, 206, 606, 1171, 1234, 431, -242, 21, 273, 57, 26, 136, 100, 79, 124, 129, 122, 141, 155, 160, 167, 179, 198, 213, 232, 249, 258, 258, 256, 275, 309, 313, 304, 311, 301, 261, 206, 153, 100, 64, 43, 31, 26, 16, 4, 4, 11, 23, 40, 31, 21, 33, 38, 40, 62]"
1714134275463988712,"[69, 62, 67, 74, 57, 47, 52, 33, 4, -2, 7, 14, 16, 14, 11, 14, 26, 35, 35, 38, 31, 21, 35, 57, 52, 43, 55, 83, 110, 122, 100, 74, 67, 67, 76, 88, 91, 81, 62, 45, 33, 124, 556, 1207, 1368, 570, -237, -64, 218, -4, -69, 69, 45, -2, 43, 55, 47, 69, 86, 93, 105, 112, 119, 141, 167, 186, 201, 218, 232, 261, 294, 301, 289]"
1714134276025026537,"[285, 292, 278, 220, 170, 112, 16, -16, 23, 11, -26, -14, 2, -4, -9, -16, -26, -14, -4, -4, 7, 28, 31, 21, 11, 7, 11, 16, 14, -2, -31, -47, -52, -43, -23, -23, -26, -11, 7, 19, 16, -4, -11, 7, 7, 7, 28, 35, 52, 59, 33, 23, 45, 50, 31, 31, 52, 71, 83, 50, 19, 251, 848, 1313, 944, 14, -237, 153, 143, -50, 33, 83, 31]"
1714134276586094880,"[55, 91, 74, 59, 69, 86, 100, 110, 110, 107, 117, 141, 153, 174, 210, 227, 237, 251, 266, 263, 261, 244, 198, 127, 57, 9, -7, -19, -28, -33, -33, -19, 2, 4, -23, -28, -4, -4, -23, -14, 9, 16, 19, 31, 43, 45, 26, 9, 16, 21, 7, 7, 16, 19, 21, 26, 19, 19, 45, 74, 76, 40, 19, 35, 38, 26, 35, 26, 9, 28, 45, 33, 86]"
1714134277147132705,"[369, 843, 1052, 532, -201, -182, 136, 16, -83, 35, 47, 7, 43, 64, 47, 50, 57, 50, 55, 83, 112, 124, 131, 150, 182, 213, 227, 230, 256, 278, 261, 258, 268, 225, 160, 107, 57, 26, 16, 9, -4, -4, 2, 16, 35, 35, 33, 45, 55, 59, 69, 69, 83, 100, 95, 100, 112, 93, 81, 98, 98, 93, 100, 91, 71, 93, 119, 91, 57, 67, 67, 50, 47]"
1714134277708175621,"[50, 45, 40, 21, 7, 115, 433, 778, 728, 143, -330, -146, 105, 0, -47, 31, 19, -9, 21, 38, 33, 47, 69, 93, 115, 124, 136, 153, 167, 196, 234, 258, 268, 285, 304, 316, 318, 304, 263, 210, 158, 110, 74, 50, 23, 14, 23, 28, 19, 19, 23, 21, 26, 40, 47, 50, 55, 62, 74, 88, 107, 117, 107, 103, 117, 124, 119, 119, 117, 115, 119, 129, 131]"
1714134278269238877,"[129, 112, 93, 103, 117, 95, 86, 86, 62, 62, 86, 88, 71, 52, 57, 88, 270, 695, 1025, 711, -52, -251, 103, 124, -47, 16, 57, -2, 7, 33, 19, 19, 45, 55, 62, 86, 100, 100, 112, 131, 139, 150, 177, 198, 210, 230, 246, 234, 210, 191, 146, 86, 50, 19, -9, -16, -19, -19, -11, -4, 0, 4, 14, 31, 35, 35, 47, 43, 11, 9, 35, 35, 28]"
1714134278830307220,"[38, 38, 43, 59, 57, 52, 59, 57, 59, 59, 40, 35, 59, 62, 52, 59, 69, 71, 69, 71, 81, 88, 88, 88, 93, 98, 100, 95, 95, 107, 105, 79, 64, 59, 57, 79, 103, 105, 86, 59, 47, 57, 64, 47, 33, 28, 26, 33, 21, 62, 393, 1018, 1373, 793, -155, -215, 141, 0, -127, 9, -4, -91, -47, -23, -45, -16, 9, 2, 16, 40, 52, 74, 100]"
1714134279391345045,"[110, 115, 141, 177, 203, 222, 222, 201, 196, 215, 206, 160, 110, 59, 21, 0, -7, -14, -23, -26, -14, -2, -7, -11, -11, -4, 14, 28, 28, 33, 38, 35, 45, 57, 62, 64, 55, 52, 71, 81, 76, 76, 74, 71, 81, 91, 93, 88, 81, 86, 98, 103, 91, 59, 19, 4, 16, 28, 31, 26, 21, 33, 47, 47, 40, 28, 16, 4, 7, 14, 16, 11, 4]"
1714134279952413388,"[9, 26, 40, 40, 31, 31, 40, 47, 50, 62, 67, 47, 28, 11, 2, 9, 9, 4, 16, 31, 38, 28, 14, 179, 702, 1284, 1227, 318, -311, -26, 136, -83, -62, 38, -19, -31, 26, 26, 16, 40, 50, 52, 71, 81, 86, 83, 74, 86, 122, 146, 165, 191, 213, 220, 225, 232, 225, 184, 134, 103, 64, 26, 2, -33, -57, -35, -19, -33, -28, -14, -16, -11, 4]"
1714134280513481731,"[7, -14, -28, -23, -33, -45, -40, -50, -67, -55, -50, -69, -62, -43, -62, -71, -62, -59, -52, -38, -38, -38, -28, -19, -14, -9, -4, 0, 2, 7, 19, 21, 16, 23, 33, 35, 43, 40, 26, 2, -9, 11, 23, 7, 7, 28, 31, 23, 33, 62, 88, 83, 62, 64, 67, 69, 79, 83, 86, 91, 98, 110, 103, 81, 74, 74, 67, 64, 52, 38, 57, 86, 91]"
1714134281074550078,"[225, 594, 937, 805, 119, -297, -2, 158, -26, -19, 74, 47, 26, 52, 57, 55, 62, 67, 74, 91, 103, 110, 107, 105, 134, 160, 167, 177, 182, 191, 206, 198, 174, 155, 136, 98, 55, 31, -4, -50, -67, -69, -67, -43, -33, -50, -45, -19, -2, 9, 11, 7, 16, 28, 33, 47, 64, 55, 40, 40, 45, 57, 67, 55, 59, 83, 95, 91, 83, 71, 69, 88, 91]"
1714134281635618421,"[86, 95, 98, 93, 103, 107, 107, 103, 83, 76, 95, 103, 95, 91, 86, 88, 103, 107, 91, 62, 59, 95, 115, 74, 16, 7, 19, 16, 14, 19, 14, 2, 4, 105, 402, 762, 781, 237, -316, -165, 143, 28, -40, 59, 45, 11, 64, 86, 67, 74, 81, 69, 81, 110, 119, 122, 134, 162, 196, 230, 256, 278, 292, 306, 316, 323, 309, 270, 220, 165, 100, 45, 14]"
1714134282196656246,"[-4, -9, -4, -4, -4, -4, -14, -9, 9, 4, -19, -31, -28, -16, 0, 11, 9, -4, -9, 2, 16, 21, 26, 26, 31, 38, 38, 43, 40, 26, 21, 31, 40, 47, 55, 57, 57, 55, 67, 74, 40, -2, -19, -14, -7, -4, 0, 9, 11, 4, 16, 148, 512, 879, 766, 81, -354, -38, 167, -31, -16, 117, 71, 33, 81, 81, 59, 91, 115, 98, 110, 143, 148]"
1714134282757724589,"[148, 158, 162, 186, 239, 261, 254, 275, 309, 294, 261, 254, 222, 136, 52, 11, -7, -33, -57, -52, -38, -40, -35, -21, -11, -9, -11, -2, 28, 38, 23, 31, 47, 35, 21, 38, 47, 43, 50, 62, 59, 64, 62, 40, 40, 64, 76, 86, 64, 28, 50, 74, 88, 119, 110, 67, 64, 83, 95, 98, 81, 83, 119, 129, 100, 79, 38, -11, 9, 79, 93, 35, 0]"
1714134283318792932,"[28, 50, -9, -38, 201, 666, 973, 618, -162, -313, 52, 16, -148, -47, -4, -67, -52, -26, -23, 19, 40, 28, 47, 55, 26, 40, 83, 95, 103, 134, 184, 206, 213, 246, 254, 222, 227, 254, 210, 136, 124, 86, 4, 2, 26, 14, 2, -16, -19, 26, 59, 47, 33, 35, 40, 38, 31, 31, 33, 26, 28, 55, 76, 71, 55, 50, 40, 19, 19, 38, 40, 31, 38]"
1714134283879861275,"[52, 55, 50, 47, 62, 79, 79, 74, 59, 40, 33, 43, 67, 95, 110, 81, 50, 45, 50, 52, 57, 64, 59, 57, 64, 52, 35, 215, 704, 1159, 961, 139, -256, 50, 127, -59, -19, 35, -19, -7, 26, 11, 21, 40, 40, 38, 28, 9, 14, 26, 35, 57, 83, 107, 134, 150, 165, 182, 184, 162, 122, 88, 55, 4, -45, -71, -86, -95, -93, -93, -98, -79, -50]"
1714134284440904191,"[-47, -52, -40, -21, -11, -16, -23, -14, -7, -2, 2, 2, -9, -9, 0, 4, 11, 16, 11, 19, 35, 38, 35, 38, 35, 50, 64, 59, 62, 69, 71, 88, 110, 107, 88, 71, 69, 64, 50, 43, 50, 62, 71, 62, 45, 136, 493, 949, 961, 309, -230, -26, 158, -33, -50, 62, 33, 9, 55, 59, 55, 76, 88, 88, 95, 110, 127, 146, 158, 167, 177, 194, 225]"
1714134285001967447,"[254, 268, 275, 275, 268, 258, 237, 184, 107, 35, -2, -9, -19, -43, -62, -67, -55, -43, -28, -21, -26, -26, -14, -14, -14, -14, -26, -31, -21, -26, -35, -26, -26, -31, -21, -11, 0, 7, -2, -4, 14, 26, 28, 31, 33, 31, 21, 7, 2, 2, -2, 2, 19, 31, 38, 40, 33, 31, 131, 491, 977, 1008, 285, -294, -50, 167, -21, -43, 55, 26, 16, 64, 69]"
1714134285563035790,"[57, 69, 83, 95, 110, 122, 124, 129, 150, 174, 191, 206, 201, 201, 222, 244, 244, 242, 227, 189, 134, 76, 40, 14, -14, -28, -26, -19, -16, -14, -14, -9, 4, 16, 23, 26, 26, 23, 11, -4, 2, 14, 7, 9, 19, 23, 16, 4, 0, 4, 11, 11, 2, -9, -4, 0, -7, -9, -9, -23, -31, -16, 9, 26, 14, -11, -21, -14, -11, -4, 0, -2, 0]"
1714134286124104133,"[2, -11, 0, 242, 781, 1147, 718, -122, -249, 79, -9, -167, -67, -31, -74, -50, -16, -21, -14, 7, 19, 26, 40, 57, 69, 86, 107, 124, 143, 165, 167, 158, 162, 177, 182, 179, 170, 146, 100, 50, 16, -2, -26, -45, -57, -52, -38, -31, -28, -16, -9, -7, 4, 16, 19, 21, 26, 31, 38, 43, 40, 43, 45, 43, 38, 26, 23, 26, 26, 31, 40, 40, 35]"
1714134286685172476,"[33, 16, -4, -16, -26, -33, -19, 2, 16, 11, -9, -26, -38, -50, -43, -26, -23, -21, -21, -38, -9, 258, 783, 1047, 517, -261, -263, 91, -7, -136, -23, 2, -40, -7, 7, -23, -11, 23, 35, 47, 62, 64, 76, 105, 134, 153, 170, 184, 198, 218, 234, 242, 239, 225, 203, 182, 139, 91, 52, 11, -7, 0, 4, 4, 4, 0, -11, -9, 7, 21, 19, 19, 31]"
1714134287246210301,"[43, 50, 55, 40, 14, 19, 38, 40, 40, 43, 33, 35, 52, 59, 64, 59, 23, -2, 14, 33, 28, 31, 50, 64, 55, 23, 0, -16, -21, -23, -23, -11, -2, -14, -28, 16, 280, 733, 927, 433, -246, -215, 124, 50, -64, 21, 33, 0, 40, 69, 55, 57, 79, 91, 100, 117, 139, 139, 131, 153, 191, 210, 220, 234, 249, 258, 263, 258, 246, 218, 177, 129, 79]"
1714134287807278648,"[47, 23, 4, -7, -2, 7, 4, -16, -43, -52, -33, -11, -7, -2, 7, 11, 11, 9, 14, 23, 28, 33, 38, 43, 43, 47, 55, 59, 67, 71, 69, 83, 103, 88, 64, 69, 74, 71, 76, 76, 67, 62, 59, 64, 136, 421, 841, 939, 376, -249, -136, 143, 0, -88, 9, 9, -26, 4, 23, 19, 28, 45, 52, 62, 79, 91, 98, 119, 139, 153, 172, 191, 203]"
1714134288368346991,"[206, 184, 165, 170, 165, 136, 100, 45, -16, -50, -74, -93, -81, -67, -69, -62, -50, -40, -23, -11, -7, 0, 9, 21, 33, 40, 40, 43, 47, 52, 59, 59, 57, 57, 57, 59, 67, 67, 67, 59, 55, 57, 67, 64, 62, 74, 98, 112, 100, 74, 64, 62, 64, 71, 81, 81, 76, 67, 40, 59, 359, 925, 1186, 608, -191, -170, 143, -16, -148, -35, -31, -95, -79]"
1714134288929415334,"[-57, -69, -62, -35, -21, -9, 0, -9, -14, 16, 47, 67, 86, 100, 119, 146, 165, 170, 170, 158, 141, 117, 76, 31, -7, -38, -47, -38, -33, -28, -31, -40, -35, -14, -2, 2, 4, 2, 9, 23, 31, 35, 33, 26, 33, 45, 50, 50, 47, 43, 50, 62, 64, 67, 64, 59, 64, 74, 69, 47, 40, 62, 59, 19, 4, 14, 9, 4, 19, 33, 35, 33, 9]"
1714134289490483677,"[-14, 122, 579, 1107, 1016, 174, -328, -14, 117, -105, -100, -38, -98, -91, -38, -40, -45, -31, -19, -7, 9, 19, 19, 33, 57, 79, 105, 129, 148, 160, 172, 184, 194, 194, 179, 153, 107, 59, 28, 7, -14, -26, -26, -21, -14, -9, -4, 4, 11, 19, 26, 16, -2, -4, -9, -11, 2, 9, 7, 14, 19, 23, 31, 33, 33, 35, 38, 45, 52, 50, 57, 67, 64]"
1714134290051552020,"[67, 83, 105, 115, 98, 69, 64, 59, 35, 33, 50, 50, 43, 26, 0, 50, 369, 893, 1052, 405, -299, -150, 153, -11, -83, 31, 2, -40, 0, 4, -9, 9, 23, 28, 45, 59, 64, 79, 98, 117, 139, 158, 179, 186, 162, 146, 153, 155, 141, 122, 88, 45, 2, -28, -45, -50, -47, -40, -35, -28, -21, -16, -4, 11, 19, 19, 28, 38, 45, 52, 62, 57, 57]"
1714134290612620363,"[64, 67, 69, 64, 33, 2, 7, 31, 33, 40, 45, 38, 52, 83, 93, 71, 47, 47, 57, 62, 67, 69, 67, 69, 74, 81, 186, 546, 977, 937, 242, -258, 2, 208, 4, -28, 50, -14, -43, 11, 9, 0, 31, 43, 33, 35, 38, 35, 57, 83, 103, 119, 131, 150, 172, 186, 191, 186, 172, 155, 129, 83, 35, -4, -38, -52, -47, -47, -62, -71, -67, -52, -35]"
1714134291173688710,"[-23, -11, -9, -9, 7, 23, 31, 31, 14, 2, 19, 33, 33, 35, 35, 31, 38, 50, 55, 55, 50, 50, 59, 71, 71, 74, 81, 83, 76, 40, 0, 2, 11, 9, 19, 35, 43, 45, 33, 16, 153, 620, 1164, 1064, 196, -294, 40, 172, -50, -31, 52, 4, 2, 47, 47, 40, 57, 67, 59, 47, 40, 43, 50, 64, 86, 112, 131, 148, 165, 177, 184, 189, 184]"
1714134291734757053,"[162, 129, 81, 38, 9, -14, -31, -35, -35, -31, -28, -40, -47, -31, -21, -16, -2, 7, 0, -4, 2, 11, 2, -19, -16, 0, 0, 2, 11, 11, 14, 23, 26, 31, 35, 38, 43, 47, 47, 55, 57, 57, 64, 69, 67, 67, 69, 79, 103, 112, 83, 45, 38, 43, 45, 47, 50, 45, 33, 31, 23, 43, 301, 822, 1126, 678, -117, -222, 103, 28, -124, -35, 0]"
1714134292295825396,"[-47, -28, -2, -14, -2, 19, 21, 26, 43, 47, 50, 71, 95, 103, 100, 91, 91, 117, 139, 139, 134, 134, 124, 93, 45, -4, -35, -50, -50, -50, -50, -55, -50, -35, -23, -14, -7, -7, -4, 7, 16, 9, 2, 2, 7, 16, 23, 33, 35, 28, 28, 43, 50, 50, 50, 45, 47, 55, 62, 64, 64, 59, 62, 69, 74, 76, 76, 64, 67, 79, 83, 83, 83]"
1714134292856893739,"[57, 35, 50, 67, 76, 86, 79, 50, 14, -14, -21, -35, -67, -71, -50, -45, -52, -16, 220, 663, 896, 474, -213, -263, 67, 19, -103, -7, 21, -23, -4, 23, 11, 7, 23, 35, 35, 50, 76, 100, 115, 122, 136, 167, 194, 218, 234, 237, 237, 244, 239, 220, 179, 122, 64, 33, 19, 7, -7, -19, -16, -4, 4, 9, 7, -2, 2, 19, 31, 33, 38, 40, 45]"
1714134293417931564,"[52, 40, 16, 14, 26, 26, 31, 40, 33, 9, 4, 14, 21, 28, 26, 11, 11, 21, 28, 33, 35, 35, 35, 26, 16, 28, 28, -11, -35, -26, -19, -16, -11, -7, -2, 2, 2, -2, 119, 510, 937, 819, 95, -316, -7, 148, -38, -23, 71, 35, 21, 62, 69, 62, 81, 86, 79, 93, 112, 117, 134, 153, 167, 189, 215, 232, 237, 222, 218, 234, 232, 206, 172]"
1714134293978999907,"[119, 64, 31, 7, -16, -31, -47, -55, -40, -28, -28, -21, -11, -7, -7, -11, -11, 0, 4, 11, 26, 31, 31, 35, 38, 43, 50, 52, 38, 23, 21, 31, 38, 35, 33, 35, 38, 43, 40, 28, 19, 9, 4, 11, 21, 19, 2, -11, -9, 4, 11, 9, 7, 9, 26, 55, 71, 59, 23, -9, -14, 7, 16, 16, 16, 21, 28, 26, 105, 445, 934, 1054, 440]"
1714134294540073341,"[-220, -91, 167, -16, -98, 14, -2, -40, 7, 14, 0, 28, 50, 52, 64, 71, 81, 105, 129, 148, 165, 179, 201, 232, 256, 268, 270, 261, 254, 237, 198, 143, 88, 40, 19, 16, 9, -2, -23, -43, -40, -26, -14, -9, -9, -11, -2, 9, 14, 4, -9, -23, -52, -71, -57, -43, -52, -55, -43, -31, -26, -23, -28, -28, -16, -7, 0, 2, -2, -11, -19, -11, 2]"
1714134295101167115,"[4, -2, 0, 9, 21, 28, 28, 23, 26, 35, 45, 45, 26, 4, 11, 28, 33, 38, 47, 62, 79, 81, 64, 50, 47, 50, 55, 62, 59, 47, 35, 31, 93, 395, 879, 1068, 536, -174, -141, 162, 43, -55, 50, 52, 0, 7, 16, 14, 28, 40, 47, 62, 76, 79, 79, 95, 115, 134, 158, 177, 186, 191, 191, 194, 191, 174, 143, 105, 52, 4, -33, -64, -76]"
1714134295662220201,"[-81, -86, -81, -71, -67, -57, -45, -43, -38, -40, -52, -45, -28, -26, -21, -9, -9, -2, 9, 4, -9, -11, -2, 7, 9, 14, 19, 21, 23, 33, 40, 40, 45, 45, 47, 57, 59, 40, 14, 11, 28, 38, 40, 45, 45, 47, 52, 62, 64, 64, 64, 59, 50, 50, 57, 57, 55, 59, 64, 69, 71, 69, 71, 91, 117, 124, 105, 79, 69, 74, 81, 88, 88]"
1714134296223293631,"[86, 76, 57, 74, 285, 723, 1032, 711, -50, -251, 83, 59, -136, -64, -14, -71, -52, -11, -31, -33, -2, 9, 16, 31, 35, 45, 67, 91, 112, 124, 119, 124, 160, 191, 203, 206, 201, 189, 174, 141, 88, 38, -2, -35, -47, -40, -35, -40, -43, -33, -16, -9, -2, 0, 0, 11, 28, 35, 40, 40, 35, 38, 50, 57, 62, 57, 50, 57, 64, 64, 71, 67, 57]"
1714134296784341626,"[64, 69, 50, 43, 45, 45, 50, 59, 62, 57, 38, 23, 31, 45, 50, 50, 45, 45, 52, 59, 69, 76, 55, 23, 16, 35, 43, 35, 35, 43, 40, 33, 40, 55, 57, 52, 47, 33, 26, 23, 16, 4, 4, 7, 0, -7, 21, 227, 635, 884, 556, -115, -275, 52, 79, -67, -4, 43, -4, 11, 52, 50, 52, 67, 71, 74, 76, 79, 93, 115, 129, 148, 174]"
1714134297345409969,"[201, 218, 239, 258, 263, 266, 263, 230, 182, 141, 91, 38, 4, -21, -38, -52, -81, -91, -69, -62, -62, -50, -38, -26, -16, -19, -19, -4, 4, 14, 23, 26, 33, 43, 47, 50, 55, 52, 59, 67, 62, 62, 62, 64, 71, 74, 71, 74, 76, 74, 76, 71, 55, 57, 62, 62, 62, 52, 35, 35, 35, 28, 43, 59, 43, 14, 2, 2, 7, 9, 7, 7, 14]"
1714134297906478316,"[21, 23, 40, 225, 630, 929, 647, -79, -328, -9, 38, -124, -59, 11, -31, -28, 2, -4, 7, 35, 43, 45, 57, 76, 95, 117, 134, 143, 160, 191, 220, 246, 263, 268, 266, 268, 261, 232, 177, 112, 59, 31, 14, 2, -4, -16, -14, -4, -9, -16, -9, -7, -7, 7, 23, 31, 33, 31, 35, 45, 55, 59, 59, 52, 55, 64, 69, 71, 69, 59, 59, 69, 76]"
1714134298467546659,"[69, 38, 11, 26, 43, 43, 45, 35, 9, 2, 16, 23, 21, 7, -14, -9, 11, 14, 4, -9, -21, -26, -23, -14, -4, 4, 21, 33, 23, 4, 2, 2, -2, 7, 21, 28, 31, 21, 26, 201, 627, 999, 771, 2, -299, 40, 103, -76, -19, 43, -7, 4, 50, 47, 45, 59, 64, 76, 93, 105, 115, 124, 141, 160, 186, 210, 220, 215, 210, 230, 246, 227, 198]"
1714134299028615002,"[182, 148, 93, 45, 11, -16, -33, -43, -38, -33, -40, -57, -52, -40, -31, -19, -14, -16, -11, -2, 9, 19, 16, 14, 23, 26, 28, 35, 40, 38, 26, 11, 19, 33, 28, 23, 31, 35, 43, 47, 47, 47, 50, 50, 52, 47, 35, 35, 45, 45, 43, 45, 45, 45, 45, 35, 23, 14, 2, 4, 9, -4, -28, -57, -71, -59, -52, -50, -40, -35, -28, -14, -4]"
1714134299589673175,"[88, 431, 834, 812, 196, -306, -107, 119, -52, -103, 7, -4, -31, 11, 21, 14, 40, 57, 57, 67, 81, 81, 86, 105, 129, 146, 165, 194, 225, 246, 261, 263, 261, 261, 242, 194, 131, 71, 28, 4, -7, -19, -28, -31, -23, -11, -7, -2, -2, 2, 11, 28, 35, 16, -11, -9, 14, 23, 28, 35, 31, 33, 50, 57, 57, 57, 55, 50, 57, 67, 71, 69, 59]"
1714134300150721170,"[62, 76, 83, 91, 83, 52, 38, 71, 103, 93, 64, 45, 40, 35, 40, 52, 47, 33, 31, 35, 47, 230, 659, 1011, 759, 4, -273, 59, 105, -91, -45, 26, -14, -9, 21, 11, 14, 43, 55, 62, 69, 76, 91, 115, 127, 129, 134, 134, 153, 194, 218, 225, 227, 218, 203, 179, 127, 64, 9, -26, -40, -40, -40, -40, -40, -38, -26, -11, -2, 2, 2, 7, 21]"
1714134300711789513,"[33, 43, 45, 33, 19, 26, 43, 43, 26, 11, 16, 28, 33, 38, 40, 40, 40, 47, 57, 59, 57, 57, 59, 64, 74, 74, 71, 71, 74, 79, 86, 86, 83, 83, 86, 81, 69, 64, 55, 26, 11, 35, 59, 74, 79, 67, 47, 47, 55, 55, 57, 64, 64, 69, 69, 67, 215, 656, 1114, 992, 194, -285, 2, 134, -67, -38, 57, 7, -14, 14, 2, -7, 2]"
1714134301272857860,"[0, 2, 21, 28, 35, 43, 40, 57, 88, 107, 131, 158, 177, 196, 206, 206, 203, 186, 143, 93, 45, 4, -19, -33, -38, -35, -38, -52, -52, -40, -35, -52, -64, -50, -38, -38, -26, -7, -2, 0, 7, 11, 19, 31, 35, 35, 38, 40, 47, 57, 57, 55, 57, 59, 64, 71, 74, 71, 69, 62, 59, 69, 74, 67, 67, 71, 79, 83, 83, 81, 79, 83, 91]"
1714134301833926203,"[98, 95, 91, 86, 91, 100, 103, 100, 83, 62, 64, 79, 83, 88, 98, 103, 93, 59, 28, 21, 21, 21, 28, 19, -2, -9, -23, -4, 251, 757, 1088, 687, -143, -304, 47, 7, -148, -55, -26, -76, -40, -2, -9, -7, 4, 11, 31, 50, 62, 69, 69, 81, 112, 141, 162, 182, 196, 218, 239, 249, 251, 239, 206, 167, 122, 74, 40, 11, -11, -14, -4, 0, 4]"
1714134302394994546,"[2, 2, 14, 26, 33, 38, 35, 33, 33, 31, 26, 23, 4, -7, 11, 19, -2, -26, -21, -11, -2, 7, 16, 19, 16, 19, 28, 40, 45, 45, 45, 45, 52, 62, 67, 64, 62, 64, 71, 76, 76, 67, 55, 57, 71, 81, 76, 74, 76, 76, 79, 83, 74, 57, 55, 69, 88, 105, 98, 69, 52, 50, 38, 31, 28, 16, 11, 11, 2, 50, 335, 824, 1049]"
1714134302956062889,"[534, -220, -222, 95, -16, -127, -19, -11, -52, -35, -31, -33, -16, 0, 0, -7, 0, 26, 40, 55, 74, 91, 117, 143, 165, 189, 210, 218, 225, 230, 218, 189, 136, 74, 33, 7, -19, -28, -28, -31, -26, -16, -14, -4, 2, 7, 16, 23, 28, 35, 38, 38, 50, 57, 52, 55, 62, 62, 67, 69, 64, 64, 69, 67, 55, 43, 45, 45, 45, 52, 59, 62, 55]"
1714134303517131232,"[59, 57, 33, 31, 47, 40, 16, 7, 23, 47, 64, 67, 50, 21, 4, 7, 16, 19, 14, 21, 35, 33, 9, 76, 431, 925, 929, 203, -364, -131, 86, -93, -110, -9, -47, -57, -2, -2, 0, 31, 31, 23, 40, 55, 69, 91, 107, 115, 127, 158, 186, 213, 242, 244, 227, 237, 242, 203, 153, 107, 52, 7, -11, -16, -31, -47, -40, -43, -71, -62, -40, -45, -38]"
1714134304078199575,"[-19, -7, 4, 7, -2, -2, 16, 33, 28, 4, -7, 0, 14, 19, 0, -26, -28, -7, 16, 31, 26, 16, 19, 28, 33, 40, 50, 40, 38, 62, 76, 83, 100, 88, 43, 19, 35, 45, 35, 31, 33, 40, 45, 31, 26, 239, 726, 1037, 615, -191, -311, 62, 21, -141, -40, 2, -52, -35, -4, -7, -16, -26, -14, 4, 9, 26, 55, 71, 83, 100, 124, 153, 184]"
1714134304639267922,"[201, 208, 220, 230, 222, 189, 129, 64, 11, -31, -59, -76, -79, -79, -76, -74, -64, -50, -40, -35, -26, -14, -4, 7, 11, 11, 21, 31, 35, 40, 40, 38, 40, 43, 43, 45, 47, 38, 19, 19, 33, 43, 43, 45, 52, 52, 57, 74, 86, 74, 55, 43, 35, 14, 4, 16, 23, 26, 35, 35, 76, 335, 778, 968, 479, -215, -201, 150, 76, -67, 4, 19, -14]"
1714134305200305747,"[21, 43, 28, 40, 55, 57, 64, 67, 57, 50, 45, 59, 88, 110, 127, 153, 167, 179, 201, 198, 177, 148, 107, 59, 16, -26, -55, -62, -74, -88, -76, -62, -62, -57, -45, -31, -19, -4, 4, 7, 7, 26, 45, 45, 33, 21, 14, 28, 43, 35, 31, 35, 43, 50, 59, 62, 62, 71, 93, 98, 62, 28, 28, 38, 43, 52, 67, 64, 57, 57, 88, 273, 690]"
1714134305761374090,"[1037, 771, 9, -251, 107, 167, -28, 2, 59, 21, 40, 81, 69, 59, 76, 93, 105, 122, 131, 134, 139, 150, 177, 208, 225, 230, 246, 268, 275, 270, 256, 227, 196, 153, 100, 59, 35, -7, -43, -35, -21, -35, -52, -47, -33, -23, -19, -9, -7, -7, 2, -7, -28, -38, -47, -57, -47, -33, -31, -31, -35, -33, -26, -16, -9, -9, -11, -4, 7, 14, 16, 21, 16]"
1714134306322442433,"[16, 33, 40, 40, 52, 69, 79, 74, 55, 47, 47, 35, 31, 43, 52, 50, 31, 0, 38, 335, 874, 1157, 644, -158, -201, 139, 52, -74, 23, 21, -50, -19, 21, 7, 14, 40, 43, 50, 74, 86, 93, 110, 122, 127, 143, 167, 189, 213, 225, 232, 237, 230, 213, 184, 136, 86, 52, 23, 4, -2, -2, 0, 4, 7, 11, 21, 26, 33, 38, 38, 40, 47, 52]"
1714134306883510776,"[57, 52, 40, 38, 45, 43, 43, 33, 14, 11, 9, 0, 4, 9, 7, 14, 21, 19, 21, 19, 2, -7, -28, -57, -55, -43, -40, -19, 4, 4, -7, -16, -19, -21, -35, -40, -31, -26, -19, -9, -19, 50, 414, 941, 1049, 390, -275, -131, 127, -38, -86, 35, 16, -19, 21, 35, 31, 52, 67, 62, 67, 81, 105, 124, 131, 139, 150, 170, 196, 220, 237, 239, 239]"
1714134307444548601,"[242, 242, 225, 184, 115, 43, 4, -4, -14, -26, -31, -28, -19, -9, -7, -28, -55, -45, -21, -16, -7, 0, -7, -4, 7, -2, -11, -2, 0, -4, 7, 16, 21, 21, 16, 19, 23, 19, 14, 16, 9, 9, 26, 33, 33, 31, 14, 2, 9, 7, -2, -4, -9, -7, 2, 4, 2, -11, -21, -11, 0, 16, 43, 47, 21, 2, 9, 19, 21, 19, 14, 23, 40]"
1714134308005616948,"[43, 35, 141, 515, 982, 975, 275, -273, -64, 110, -62, -62, 35, -9, -50, -19, -11, -23, 0, 16, 11, 26, 50, 67, 83, 103, 115, 131, 160, 186, 208, 225, 227, 225, 234, 239, 222, 182, 127, 79, 45, 28, 11, 0, 0, 2, 4, 9, 0, -11, -4, 7, 19, 28, 31, 33, 35, 33, 28, 28, 28, 23, 26, 26, 28, 33, 35, 31, 16, 7, 2, -4, -11]"
1714134308566654773,"[-14, -35, -59, -45, -28, -38, -40, -45, -55, -43, -35, -57, -59, -35, -31, -26, -14, -14, -9, 2, 4, 9, 19, 21, 28, 40, 38, 40, 52, 69, 91, 98, 71, 45, 50, 59, 64, 67, 64, 55, 47, 38, 71, 304, 764, 1066, 699, -64, -203, 150, 117, -45, 43, 83, 35, 59, 86, 74, 83, 103, 107, 119, 129, 134, 141, 162, 174, 160, 160, 189, 206, 201, 210]"
1714134309127723116,"[222, 208, 186, 182, 162, 115, 67, 14, -45, -83, -91, -95, -100, -107, -119, -115, -95, -81, -74, -71, -67, -52, -35, -31, -26, -14, -9, -4, 4, 11, 2, -16, -11, 2, 11, 19, 23, 19, 19, 31, 40, 50, 59, 55, 52, 62, 76, 79, 79, 74, 74, 91, 115, 131, 127, 100, 81, 88, 93, 76, 50, 40, 40, 35, 38, 55, 194, 565, 932, 786, 95, -263, 43]"
1714134309688791459,"[172, -7, 19, 115, 76, 59, 88, 93, 98, 119, 131, 122, 112, 129, 150, 162, 174, 167, 165, 196, 222, 213, 201, 201, 194, 182, 172, 148, 93, 26, -23, -47, -59, -64, -69, -76, -69, -50, -43, -35, -26, -26, -21, -7, 11, 21, 23, 23, 28, 40, 47, 43, 21, -4, -9, 2, 7, 9, 9, 7, 9, 21, 33, 35, 38, 38, 38, 47, 64, 67, 62, 62, 67]"
1714134310249829284,"[76, 83, 83, 79, 81, 83, 88, 93, 79, 62, 69, 86, 93, 83, 64, 45, 38, 43, 55, 59, 62, 67, 69, 62, 67, 215, 635, 1088, 989, 222, -246, 35, 155, -50, -23, 64, 16, 11, 52, 50, 45, 52, 50, 50, 45, 21, 21, 45, 59, 74, 95, 124, 150, 167, 186, 198, 198, 203, 201, 174, 131, 81, 31, 0, -21, -40, -47, -43, -35, -26, -16, -16, -9]"
1714134310810897627,"[-2, 4, 14, 9, -4, -9, -19, -21, 0, 9, 4, 9, 14, 19, 31, 40, 38, 35, 38, 45, 52, 59, 55, 52, 55, 62, 69, 71, 74, 71, 69, 74, 81, 86, 86, 76, 64, 59, 43, 23, 28, 35, 31, 40, 62, 81, 86, 83, 74, 59, 59, 64, 57, 55, 59, 55, 52, 47, 45, 203, 639, 1061, 913, 148, -280, 2, 112, -91, -88, -11, -52, -62, -16]"
1714134311371935456,"[-9, -9, 0, -14, -26, 0, 31, 47, 57, 67, 86, 117, 143, 167, 186, 196, 213, 225, 225, 222, 201, 143, 88, 55, 23, -2, -23, -47, -47, -33, -40, -62, -64, -52, -40, -28, -16, -4, 2, 0, 9, 26, 33, 38, 35, 28, 40, 57, 59, 59, 55, 50, 59, 74, 71, 71, 69, 64, 59, 52, 52, 62, 59, 52, 64, 74, 76, 79, 74, 74, 81, 86, 88]"
1714134311933003799,"[93, 88, 83, 91, 98, 98, 95, 91, 91, 95, 103, 107, 107, 100, 91, 67, 45, 38, 31, 26, 31, 38, 38, 9, -31, 23, 321, 795, 982, 455, -261, -237, 74, -38, -134, -28, -23, -64, -26, -2, -4, 4, 21, 28, 43, 62, 76, 86, 98, 110, 115, 131, 165, 186, 203, 222, 227, 230, 237, 222, 186, 143, 91, 45, 19, 0, -9, -11, -14, -9, -2, 0, 11]"
1714134312494072142,"[23, 26, 31, 38, 43, 50, 57, 52, 47, 23, 0, 9, 23, 19, 31, 38, 16, 0, 9, 16, 14, 16, 26, 35, 38, 35, 38, 45, 52, 59, 59, 59, 62, 64, 69, 76, 79, 76, 79, 81, 74, 64, 57, 62, 69, 67, 69, 79, 79, 76, 76, 79, 81, 88, 91, 83, 79, 91, 115, 110, 79, 59, 57, 57, 62, 64, 55, 38, 23, 11, 55, 321, 781]"
1714134313055140485,"[999, 529, -201, -234, 98, 11, -131, -52, -38, -98, -81, -47, -59, -52, -19, -4, 4, 23, 33, 45, 74, 100, 119, 136, 153, 177, 208, 230, 239, 239, 227, 210, 177, 127, 79, 33, -9, -26, -26, -31, -28, -21, -28, -23, -4, 9, 16, 19, 16, 23, 40, 45, 47, 47, 50, 57, 64, 67, 71, 71, 62, 64, 74, 71, 57, 40, 38, 50, 62, 64, 69, 62, 52]"
1714134313616178310,"[59, 64, 38, 16, 23, 28, 23, 16, 16, 16, 0, -9, 4, 16, 16, 16, 7, -4, -2, -4, -4, 0, -11, -23, -2, 23, 19, -4, -19, -19, -2, 11, 14, 14, 14, 21, 35, 127, 433, 836, 884, 323, -246, -110, 170, 43, -31, 67, 69, 38, 69, 91, 83, 91, 100, 95, 91, 105, 122, 134, 150, 174, 194, 210, 230, 254, 275, 275, 249, 239, 244, 220, 177]"
1714134314177246653,"[127, 67, 21, -7, -33, -43, -35, -57, -74, -57, -43, -40, -28, -28, -38, -38, -26, -9, 0, 9, 19, 23, 31, 40, 47, 47, 57, 62, 59, 62, 67, 64, 69, 79, 74, 69, 71, 69, 67, 59, 52, 57, 62, 59, 62, 62, 43, 28, 28, 23, 16, 11, 21, 38, 33, 11, 4, 7, 7, 4, -9, -23, -7, 4, -7, 2, 172, 594, 985, 800, 43, -318, 9]"
1714134314738315000,"[124, -57, -19, 62, 11, 2, 38, 40, 43, 52, 43, 35, 59, 83, 93, 107, 124, 141, 170, 201, 222, 239, 256, 273, 280, 278, 258, 225, 172, 112, 62, 35, 11, -14, -23, -16, -11, -21, -31, -31, -19, -4, 9, 16, 19, 14, 19, 35, 47, 47, 47, 40, 35, 21, 11, 21, 23, 11, 19, 35, 35, 38, 43, 38, 38, 47, 55, 62, 62, 45, 33, 45, 47]"
1714134315299383343,"[35, 31, 28, 31, 38, 43, 50, 47, 35, 28, 28, 26, 9, -21, -40, -26, -9, -9, -11, -9, 0, 28, 47, 43, 23, 2, 0, 7, 2, -4, 2, 9, 7, 7, 64, 352, 853, 1104, 623, -150, -206, 127, 35, -93, 11, 26, -43, -23, 7, -7, 0, 26, 40, 50, 62, 69, 81, 107, 131, 148, 160, 172, 196, 225, 246, 256, 256, 254, 239, 210, 162, 107, 59]"
1714134315860451686,"[19, -4, -11, -9, -11, -14, -14, -7, 0, 7, -2, -16, -7, 4, 9, 19, 21, 19, 23, 19, 9, 16, 21, 19, 21, 26, 38, 43, 38, 38, 47, 45, 45, 52, 47, 45, 55, 55, 33, -4, -19, 0, 4, -2, 4, 14, 9, 14, 21, 7, 0, -4, -23, -21, -2, -4, -9, -4, -2, 2, 7, 9, 14, 16, 16, 26, 28, 26, 40, 52, 67, 86, 83]"
1714134316421489511,"[57, 43, 45, 50, 57, 62, 59, 50, 28, 19, 74, 342, 822, 1083, 615, -155, -208, 124, 35, -95, 7, 35, -4, 26, 43, 31, 43, 67, 76, 81, 91, 86, 74, 91, 124, 141, 153, 177, 208, 232, 251, 263, 254, 234, 227, 213, 167, 103, 47, 9, -9, -16, -14, -14, -23, -23, -11, 2, 7, 11, 9, 14, 28, 35, 40, 45, 45, 43, 50, 59, 64, 64, 55]"
1714134316982557854,"[52, 50, 40, 40, 43, 11, -2, 21, 33, 28, 26, 11, 2, 16, 23, 23, 21, 16, 19, 28, 23, 16, 14, -4, -43, -57, -43, -31, -40, -47, -35, -21, -16, -21, -38, -43, -23, -7, -4, 0, 4, 4, 11, 23, 28, 33, 31, 33, 57, 88, 95, 74, 47, 43, 55, 64, 69, 71, 69, 67, 67, 83, 275, 721, 1100, 865, 71, -261, 76, 139, -57, -4, 71]"
1714134317543626197,"[26, 33, 67, 57, 57, 79, 88, 93, 83, 74, 93, 122, 136, 150, 170, 186, 208, 225, 220, 220, 237, 237, 225, 208, 165, 95, 35, -2, -33, -47, -43, -43, -50, -45, -33, -26, -14, -9, -9, -2, 9, 21, 26, 28, 38, 43, 43, 47, 57, 55, 47, 38, 31, 38, 43, 33, 26, 21, 16, 19, 16, 2, -2, -4, -16, -11, -4, -9, -4, 2, 0, 2, 7]"
1714134318104694544,"[9, 16, 19, 16, 19, 7, -14, -9, 7, 4, -4, -26, -38, -14, -2, -19, -28, -19, -7, 0, 4, 9, 16, 21, 26, 33, 50, 74, 88, 81, 64, 57, 57, 59, 64, 67, 74, 81, 81, 69, 105, 352, 814, 1102, 714, -52, -189, 143, 88, -64, 35, 69, 7, 33, 79, 69, 69, 83, 86, 91, 110, 129, 136, 141, 153, 174, 201, 230, 251, 263, 275, 292, 301]"
1714134318665762887,"[299, 287, 256, 191, 110, 52, 9, -45, -93, -115, -110, -95, -88, -83, -83, -83, -79, -76, -71, -79, -83, -74, -59, -50, -43, -38, -40, -38, -26, -14, -11, -11, -9, -4, 2, 11, 21, 21, 14, 4, 7, 19, 26, 23, 21, 28, 40, 47, 50, 47, 45, 52, 62, 67, 71, 67, 57, 64, 79, 81, 81, 76, 69, 71, 88, 91, 88, 83, 69, 43, 31, 31, 26]"
1714134319226831230,"[21, 26, 35, 45, 64, 91, 91, 67, 52, 52, 57, 52, 31, 26, 43, 55, 50, 57, 213, 627, 1028, 869, 122, -266, 40, 148, -33, 2, 83, 35, 14, 43, 52, 57, 69, 74, 76, 91, 107, 122, 134, 143, 160, 177, 201, 230, 251, 258, 261, 261, 263, 258, 237, 191, 131, 71, 26, -4, -40, -64, -81, -122, -162, -153, -134, -134, -127, -112, -100, -88, -81, -74, -64]"
1714134319787869055,"[-59, -45, -26, -26, -23, -16, -14, -9, -4, -23, -33, -21, -9, 0, 2, 0, 4, 14, 14, 23, 31, 14, 4, 23, 31, 26, 31, 38, 43, 50, 50, 52, 64, 67, 69, 74, 71, 71, 76, 76, 81, 86, 83, 83, 86, 86, 93, 98, 93, 103, 124, 129, 115, 79, 40, 35, 50, 50, 57, 64, 67, 62, 59, 167, 534, 980, 987, 321, -244, -33, 194, 14, -23]"
1714134320348937398,"[81, 55, 28, 71, 81, 64, 59, 57, 69, 88, 98, 100, 103, 112, 139, 165, 186, 203, 222, 244, 270, 280, 273, 258, 230, 184, 131, 76, 31, -7, -40, -52, -45, -50, -69, -79, -83, -86, -74, -57, -57, -67, -62, -50, -55, -57, -57, -81, -86, -57, -43, -45, -38, -38, -33, -16, -2, 0, -2, -4, 0, 14, 19, 28, 35, 26, 28, 45, 55, 55, 57, 55, 57]"
1714134320909975223,"[62, 69, 81, 71, 50, 59, 86, 107, 107, 74, 33, 35, 52, 52, 59, 64, 64, 64, 64, 81, 218, 577, 941, 831, 172, -251, 4, 186, 16, 7, 107, 86, 62, 88, 91, 83, 88, 98, 100, 81, 79, 107, 134, 143, 158, 177, 201, 232, 261, 287, 301, 304, 299, 289, 266, 208, 139, 79, 33, 4, -4, -11, -21, -26, -19, -9, 0, -7, -21, -21, -9, 0, 11]"
1714134321471043570,"[19, 19, 16, 11, 16, 26, 16, 0, 0, 9, 14, 19, 11, 2, -4, -19, -23, -11, -7, -7, -16, -19, 4, 21, 9, 16, 26, 11, 19, 45, 33, 0, -19, -28, -16, -2, -11, -9, 9, 16, 7, 7, 172, 637, 1107, 927, 91, -292, 47, 134, -62, -14, 74, 33, 28, 64, 64, 64, 74, 67, 67, 88, 105, 115, 122, 129, 150, 194, 230, 237, 246, 261, 273]"
1714134322032111913,"[285, 282, 266, 230, 170, 110, 62, 21, -11, -31, -52, -55, -43, -40, -38, -26, -16, -23, -31, -21, -11, -16, -9, 4, -2, -28, -26, -4, 0, 2, 14, 14, 9, 16, 21, 23, 38, 43, 38, 47, 55, 45, 43, 50, 50, 47, 55, 67, 67, 47, 31, 31, 38, 55, 76, 69, 35, 16, 11, 11, 19, 33, 35, 21, 7, -7, -11, 153, 589, 992, 781, 4, -321]"
1714134322593164998,"[-9, 38, -136, -69, 0, -45, -47, -43, -67, -67, -45, -33, -28, -16, 4, 23, 26, 19, 33, 59, 88, 129, 162, 186, 198, 198, 203, 206, 179, 134, 79, 28, -2, -14, -21, -26, -28, -33, -28, -11, -9, -19, -23, -14, -4, 2, 11, 19, 21, 26, 33, 45, 57, 52, 40, 47, 57, 55, 59, 79, 79, 64, 67, 79, 69, 64, 79, 81, 88, 107, 93, 79, 79]"
1714134323154218081,"[57, 47, 86, 117, 107, 79, 67, 64, 62, 52, 28, 26, 43, 43, 47, 52, 103, 412, 836, 812, 196, -282, -83, 165, 45, 0, 91, 79, 52, 95, 110, 74, 57, 74, 88, 91, 107, 127, 134, 143, 172, 184, 182, 201, 222, 220, 230, 254, 249, 230, 203, 150, 79, 28, -9, -43, -45, -40, -55, -52, -38, -33, -26, -26, -26, -26, -23, -7, 14, 11, 19, 35, 38]"
1714134323715255906,"[43, 47, 31, 16, 28, 33, 21, 7, 16, 38, 33, 26, 47, 64, 62, 52, 43, 38, 43, 47, 52, 62, 59, 45, 40, 40, 91, 383, 877, 1104, 599, -165, -177, 167, 69, -55, 57, 79, 33, 69, 91, 76, 83, 105, 115, 119, 134, 153, 158, 165, 186, 215, 230, 244, 270, 280, 285, 301, 301, 273, 239, 191, 134, 86, 52, 21, 0, -2, -16, -38, -35, -26, -26]"
1714134324276324249,"[-16, 2, 9, 7, -14, -38, -28, -4, 0, 0, 0, 4, 14, 4, -14, -26, -38, -47, -38, -23, -21, -21, -23, -23, -9, 2, 7, 9, 2, 7, 21, 26, 33, 55, 62, 59, 52, 40, 40, 40, 31, 43, 59, 59, 62, 57, 23, 122, 544, 1064, 1080, 345, -268, -64, 155, -19, -40, 57, 21, 2, 47, 40, 4, 11, 31, 38, 52, 69, 83, 93, 103, 124, 153]"
1714134324837362078,"[179, 201, 218, 232, 244, 244, 234, 220, 170, 110, 69, 33, 2, -26, -50, -47, -31, -26, -21, -16, -19, -19, 0, 16, 21, 21, 19, 23, 35, 43, 47, 47, 47, 38, 28, 33, 35, 19, 9, 16, 26, 33, 31, 11, 2, 7, 2, -7, 0, 0, -7, 0, 11, 7, -21, -35, -11, 11, 21, 21, 4, -4, 2, 9, 19, 31, 31, 31, 33, 9, 4, 203, 663]"
1714134325398399903,"[1032, 802, 55, -266, 47, 127, -47, -2, 69, 21, 16, 38, 31, 38, 55, 67, 79, 88, 98, 115, 129, 148, 167, 182, 208, 242, 261, 273, 275, 268, 270, 256, 213, 158, 103, 50, 23, 9, -4, -9, -9, -4, 7, 11, 11, 21, 21, -2, -11, 4, 14, 14, 19, 28, 31, 23, 26, 50, 47, 33, 28, 19, 19, 26, 26, 21, 19, 19, 4, -9, 0, 21, 31]"
1714134325959437728,"[28, 23, 23, 14, 7, 33, 45, 14, -2, 9, 19, -4, -40, 143, 680, 1143, 886, 43, -301, -23, 11, -76, 33, 57, -9, 4, 19, 11, 23, 35, 74, 98, 88, 95, 95, 112, 162, 194, 189, 189, 179, 177, 242, 280, 234, 220, 232, 165, 112, 119, 71, -7, -35, -50, -55, -28, -14, -2, 26, 31, 33, 14, -7, 28, 64, 74, 79, 59, 47, 57, 71, 93, 95]"
1714134326520506071,"[81, 81, 110, 131, 112, 52, 0, 23, 88, 76, 23, -2, -14, -16, 2, 38, 47, 14, -26, -19, 9, -7, -21, 28, 57, 31, 35, 35, -14, -33, 0, 47, 38, -43, -59, 2, -4, -50, -21, 28, 282, 836, 1133, 654, -129, -249, 40, -21, -124, -23, -4, -47, -33, -31, -28, 14, 57, 74, 59, 19, 21, 127, 196, 148, 103, 150, 220, 246, 242, 249, 273, 254, 266]"
1714134327081543896,"[311, 234, 103, 79, 76, -7, -40, 9, -11, -74, -35, 11, -23, -38, -11, 16, 23, 7, 11, 43, 59, 28, 21, 71, 76, 43, 26, 19, 55, 33, -19, 26, 67, 98, 69, -45, -31, 52, 28, 47, 117, 28, -52, 16, 26, -19, -16, -11, 16, 64, 67, -4, 0, 278, 709, 975, 678, -23, -206, 79, 79, -21, 26, 0, 2, 74, 26, 14, 62, 43, 59, 105, 103]"
1714134327642581721,"[112, 119, 95, 117, 186, 201, 201, 230, 220, 246, 278, 213, 203, 249, 182, 69, 21, 40, -11, -107, -64, 2, -16, -14, -19, -45, -38, -50, -19, 40, 38, 35, 69, 79, 57, 81, 93, 31, 52, 143, 91, 14, 100, 117, 23, 71, 129, 67, 43, 62, 57, 45, 31, 64, 88, 33, 14, 21, 2, 9, 4, -14, -14, 35, 57, 26, 261, 757, 1037, 666, -105, -268, 105]"
1714134328203619550,"[83, -69, 40, 40, -45, -2, 31, 38, 57, 31, 2, 26, 55, 71, 103, 79, 69, 134, 129, 129, 203, 206, 218, 261, 237, 208, 194, 146, 91, 52, 21, 26, 52, 4, -31, 28, 14, -31, 35, 47, 11, 83, 81, -4, 57, 103, 33, 62, 88, 40, 21, 38, 69, 98, 115, 88, 31, 16, 67, 86, 79, 88, 55, 43, 71, 52, 45, 76, 86, 83, 31, 4, 62]"
1714134328764687893,"[69, 33, 21, -7, -33, -50, -62, 16, 83, -11, -31, 57, -2, -88, -35, 11, -9, -2, 35, 21, -28, 7, 316, 793, 1056, 783, 79, -227, 47, 107, -28, 23, 38, -4, 67, 86, 26, 31, 62, 88, 103, 81, 67, 93, 150, 186, 143, 160, 230, 194, 172, 261, 311, 268, 251, 280, 256, 179, 131, 119, 69, 69, 79, 33, 45, 59, 43, 81, 91, 64, 59, 21, 7]"
1714134329325740979,"[57, 76, 31, 0, 64, 127, 81, 45, 98, 131, 112, 35, -43, 19, 93, 71, 64, 83, 95, 79, 74, 67, 45, 38, 50, 59, 23, 50, 143, 129, 14, -33, -2, 4, -23, 26, 98, 50, 4, 55, 57, 40, 426, 1140, 1325, 596, -129, -71, 115, -4, -31, 16, -31, -23, 28, 21, 14, 62, 79, 33, 55, 91, 31, 7, 64, 100, 122, 107, 100, 220, 244, 122, 146]"
1714134329886794061,"[198, 148, 153, 174, 112, 47, -16, -50, -4, 14, -23, -59, -62, -69, -40, 43, 26, -28, -7, 26, 31, -21, -45, 11, 2, -52, 21, 76, -57, -98, 14, 14, -33, -28, -40, 11, 52, -52, -71, 7, -45, -28, 43, -16, 0, 26, -59, -93, -55, -4, -2, 4, 40, -33, -153, 4, 512, 929, 769, 81, -316, -28, 148, -50, -129, -57, -9, -11, -26, 4, 38, 21, 23]"
1714134330447862404,"[69, 74, 86, 129, 122, 112, 134, 139, 174, 206, 186, 208, 220, 189, 186, 177, 119, 62, 40, 38, 40, 21, -11, -23, -7, 69, 117, 74, 64, 76, 71, 134, 153, 117, 107, 139, 179, 146, 124, 191, 189, 122, 160, 220, 174, 162, 201, 172, 131, 115, 143, 179, 158, 139, 153, 155, 136, 139, 141, 115, 100, 117, 134, 134, 136, 79, 69, 438, 1028, 1119, 491, -98, -45]"
1714134331008930747,"[127, -7, -62, 16, -38, -95, 0, 62, -23, -50, 19, 14, 14, 45, 2, 16, 112, 103, 47, 62, 112, 119, 105, 143, 148, 112, 105, 95, 107, 112, 26, -2, 21, -4, 31, 7, -83, -9, 50, -14, -23, -7, -47, -35, 19, 11, -35, -28, 69, 71, -16, 4, 38, 4, 0, 21, 57, 67, 55, 64, 23, 23, 93, 69, 83, 91, -28, 11, 71, -33, -7, 40, 11]"
1714134331569968576,"[31, -21, -71, -38, 69, 452, 949, 814, 57, -251, -2, -47, -222, -105, -45, -131, -153, -122, -98, -11, 55, -38, -81, -21, -23, -45, -52, -47, -11, -16, -21, 16, 26, 50, 76, 16, -26, 11, 47, 9, -86, -196, -136, 83, 28, -172, -143, -79, -62, -50, -59, -79, -67, -16, -28, -81, -14, 50, -59, -129, -91, -88, -91, -14, 50, -21, -40, 31, -43, -71, 38, -69, -146]"
1714134332131036919,"[103, 134, -165, -91, 172, 23, -129, -98, -35, 55, -9, -62, 26, 258, 668, 776, 177, -376, -136, 91, -141, -220, -122, -71, -50, -57, -122, -160, -19, 45, -136, -191, -35, 43, 31, 69, 107, -21, -141, 4, 131, 31, 47, 191, 79, -148, -150, -31, 4, -91, -162, -91, -21, -43, -107, -268, -282, -64, -2, -74, -52, 19, -55, -246, -268, -35, 91, 16, 23, -19, -155, -86, 21]"
1714134332692105262,"[4, 76, 57, -26, 115, 191, 40, -11, 55, 16, -83, -83, 16, 38, 0, -14, 14, 268, 534, 414, 33, -134, 26, 2, -131, -19, 79, -2, -79, -28, 62, -9, -177, -100, 69, 81, -21, -273, -227, 206, 158, -203, 23, 330, 0, -186, 170, 194, -103, -23, 95, -134, -206, -26, -95, -280, -294, -198, -225, -330, -287, -270, -237, -208, -246, -278, -381, -287, -117, -117, -119, -220, -318]"
1714134333253173605,"[-141, -148, -306, -148, -52, -139, -119, -105, -213, -239, -139, -122, -263, -376, -232, -119, -325, -371, -141, -227, -323, 35, 366, 289, -222, -630, -357, -117, -297, -251, -148, -297, -273, -105, -218, -316, -153, -81, -91, -83, -174, -100, 98, -76, -266, -38, 136, 64, 19, 4, 7, 93, 172, 100, -122, -194, -38, 59, -115, -282, -16, 110, -249, -306, 71, 107, -122, -86, -62, -170, -74, 35, -74]"
1714134333814211430,"[-62, 83, -38, -136, 112, 134, -83, 9, 31, -122, -2, 129, 64, 31, -115, -143, 153, 139, -67, 2, 43, -40, 141, 491, 457, 119, -143, -119, 7, 0, 52, 141, 167, 194, 186, 93, 71, 230, 273, 129, 103, 230, 342, 349, 275, 287, 376, 347, 309, 469, 584, 476, 407, 529, 548, 369, 309, 309, 139, -21, 23, 93, 67, 64, 122, 105, 98, 124, 88, 153, 143, -45, 0]"
1714134334375249255,"[122, 95, 182, 213, 107, 98, 230, 369, 325, 311, 378, 297, 266, 381, 421, 340, 251, 275, 301, 318, 381, 579, 1006, 1061, 371, -50, 297, 522, 448, 460, 436, 373, 414, 390, 345, 337, 203, 256, 440, 304, 220, 337, 333, 328, 433, 515, 431, 333, 462, 575, 479, 433, 491, 452, 369, 321, 292, 292, 321, 318, 203, 95, 112, 112, 88, 107, 40, -23, 35, 81, 143, 210, 112]"
1714134334936317602,"[47, 117, 98, 107, 203, 131, 0, 103, 153, -69, -86, 153, 213, 189, 206, 189, 275, 364, 381, 534, 855, 1236, 1157, 510, 239, 647, 812, 618, 728, 937, 896, 879, 1008, 1040, 987, 1016, 1071, 1126, 1215, 1239, 1195, 1231, 1251, 1119, 1136, 1289, 1150, 958, 1054, 1056, 934, 1052, 1080, 901, 898, 925, 819, 872, 1011, 855, 714, 905, 920, 805, 1025, 1203, 1121, 1171, 1265, 1071, 901, 1047, 1080]"
1714134335497355427,"[937, 1001, 934, 709, 762, 776, 584, 476, 345, 179, 186, 112, -81, -69, -76, -167, 184, 690, 532, -69, -311, -69, 71, -57, -136, -86, 9, 4, -153, -158, 40, 35, -11, 148, 139, 100, 266, 230, 112, 270, 373, 230, 189, 275, 234, 134, 119, 100, -31, -203, -347, -455, -517, -565, -472, -321, -455, -579, -347, -222, -347, -345, -239, -251, -318, -194, -33, -160, -299, -129, 7, -74, -139]"
1714134336058423770,"[-124, -69, -74, -91, -26, -28, -43, 19, -21, -105, -4, 443, 1155, 1090, -52, -474, 162, 210, -136, 31, 155, 19, 45, 131, 124, 139, 139, 71, 150, 244, 139, 148, 309, 251, 203, 381, 359, 210, 263, 294, 215, 215, 225, 122, 64, 100, 47, -28, -19, -4, -19, 33, 57, -55, -38, 100, 86, 23, 26, 86, 170, 150, 115, 105, 93, 208, 213, 131, 177, 143, 117, 182, 103]"
1714134336619461595,"[71, 225, 225, 38, 64, 639, 1313, 1109, 115, -282, 196, 280, -79, 55, 289, 79, 16, 220, 254, 191, 119, 136, 249, 234, 182, 239, 280, 196, 194, 340, 330, 270, 340, 301, 215, 239, 218, 184, 165, 57, -16, 31, 100, 88, 33, 107, 261, 361, 486, 548, 563, 714, 766, 702, 807, 838, 740, 793, 841, 776, 695, 603, 556, 558, 520, 515, 539, 448, 373, 381, 637, 1330, 1775]"
1714134337180529938,"[1037, -57, 14, 393, 19, -256, -88, -110, -347, -313, -222, -354, -412, -378, -390, -385, -381, -381, -383, -388, -251, -191, -294, -208, -50, -129, -292, -251, -103, -150, -313, -270, -201, -321, -323, -256, -321, -280, -172, -186, -186, -179, -158, -95, -139, -136, -26, -67, -143, -50, 31, 19, -14, -62, -67, 7, 43, 2, 21, 40, -50, 40, 589, 1284, 1270, 254, -397, 67, 335, 23, -16, 117, 45]"
1714134337741598281,"[2, 86, 148, 182, 143, 107, 139, 172, 210, 215, 162, 148, 203, 244, 215, 210, 294, 273, 131, 150, 203, 67, 40, 122, 9, -79, -23, -31, -38, 33, 38, 7, 74, 115, 40, 45, 110, 19, -55, 28, 146, 162, 31, 21, 131, 43, -43, 35, 38, -4, -21, -103, 79, 802, 1356, 788, -239, -299, 148, 64, -112, 38, 81, -64, -21, 103, 71, 83, 148, 81, 23, 76, 150]"
1714134338302641197,"[165, 172, 210, 165, 131, 230, 230, 110, 127, 146, 112, 150, 74, -76, -45, 2, -45, -81, -76, -50, -50, -47, -9, 40, 100, 64, -76, -35, 131, 59, -43, 93, 155, 31, -28, 7, 50, 59, 62, 91, 52, -31, 172, 810, 1239, 666, -249, -201, 184, -19, -136, 33, -2, -67, 55, 98, 21, 26, 86, 95, 76, 105, 155, 165, 170, 177, 174, 210, 232, 210, 227, 218, 158]"
1714134338863704453,"[170, 191, 143, 117, 98, 23, -16, 4, 19, 11, 0, 2, 38, 64, 69, 79, 81, 105, 127, 103, 112, 117, 57, 103, 191, 131, 86, 139, 153, 134, 119, 165, 436, 814, 783, 191, -124, 189, 285, 86, 110, 196, 148, 122, 150, 150, 139, 158, 170, 162, 150, 158, 172, 174, 174, 182, 170, 165, 186, 191, 170, 162, 158, 148, 139, 107, 86, 86, 67, 43, 23, -2, 2]"
1714134339424772796,"[19, 11, 14, 38, 47, 40, 35, 14, 7, 35, 57, 40, 16, 4, 7, 14, 21, 31, 14, -40, 23, 373, 750, 596, -26, -239, 69, 110, -59, -31, -4, -62, -45, -2, -4, 0, 14, 11, 7, 19, 31, 28, 26, 40, 57, 69, 79, 81, 69, 64, 74, 79, 64, 38, 11, -11, -26, -26, -23, -23, -26, -28, -40, -59, -64, -47, -43, -45, -28, -14, -9, 9, 23]"
1714134339985810621,"[14, 4, 11, 16, 16, 23, 28, 4, -47, 55, 508, 956, 685, -69, -189, 162, 98, -67, 31, 76, 23, 28, 52, 47, 28, 23, 38, 50, 47, 57, 74, 86, 103, 105, 95, 95, 83, 64, 71, 79, 67, 47, 26, 9, -7, -35, -50, -45, -45, -45, -35, -28, -35, -43, -47, -57, -81, -86, -55, -38, -43, -43, -43, -52, -52, -40, -31, -28, -62, -83, 158, 649, 817]"
1714134340546878964,"[266, -268, -71, 153, -9, -69, -23, -67, -71, 9, 28, -14, -26, -28, -28, -14, 0, 9, -4, -11, 31, 62, 55, 55, 62, 62, 62, 59, 35, 7, -21, -50, -57, -55, -59, -59, -52, -50, -38, -19, -11, -11, -14, -11, -21, -21, 9, 19, -19, -52, -47, -26, -16, -19, -16, -19, -26, 136, 565, 838, 414, -242, -172, 167, 57, -59, 38, 50, 11, 47, 67, 50, 62]"
1714134341107916789,"[83, 95, 103, 100, 74, 62, 88, 112, 124, 139, 124, 110, 124, 129, 117, 100, 74, 57, 47, 23, -4, -23, -40, -47, -40, -33, -21, -19, -21, -11, -4, -9, 4, 23, 7, -33, -35, -21, -28, -28, -23, -33, -64, -93, 23, 395, 716, 436, -203, -246, 100, 40, -110, -16, 26, -14, 2, 23, 14, 26, 55, 67, 64, 74, 86, 95, 112, 119, 110, 105, 112, 122, 124]"
1714134341668985136,"[122, 110, 81, 55, 33, 9, -7, -35, -76, -81, -59, -62, -76, -74, -83, -98, -86, -69, -67, -64, -45, -38, -52, -57, -55, -57, -64, -69, -59, -74, -95, 57, 476, 759, 352, -306, -254, 76, -35, -141, -26, -14, -59, -26, 2, -2, 9, 35, 45, 47, 62, 81, 95, 117, 129, 134, 134, 131, 119, 107, 105, 93, 76, 57, 33, 0, -35, -55, -57, -64, -57, -47, -47]"
1714134342230033135,"[-38, -23, -35, -47, -47, -55, -50, -31, -43, -69, -76, -88, -93, -86, -81, -81, -115, -95, 203, 635, 584, -45, -342, -28, 69, -103, -74, -31, -98, -86, -28, -33, -35, -11, 0, 11, 35, 47, 47, 64, 83, 98, 112, 115, 110, 107, 112, 112, 100, 71, 33, 4, -14, -26, -33, -52, -67, -62, -55, -50, -40, -33, -33, -35, -35, -31, -14, -26, -71, -91, -79, -74, -64]"
1714134342791091304,"[-59, -83, -131, -86, 227, 644, 589, -35, -340, -52, 23, -141, -103, -57, -119, -115, -64, -59, -62, -55, -64, -67, -35, -9, -2, 7, 26, 47, 67, 81, 88, 79, 81, 98, 98, 81, 67, 38, 16, 21, 19, 2, 0, 0, -14, -16, -2, 7, 4, -7, -9, 14, 35, 28, -9, -40, -40, -43, -47, -40, -52, -107, -55, 287, 687, 568, -52, -275, 28, 71, -86, -31, 11]"
1714134343352159647,"[-47, -33, 11, 7, -2, 4, 7, 14, 21, 23, 28, 16, -14, -28, -14, 0, -4, -16, -21, -19, -23, -38, -62, -95, -122, -127, -124, -124, -117, -117, -117, -122, -122, -122, -127, -124, -117, -110, -86, -64, -74, -98, -100, -98, -103, -105, -112, -141, -206, -124, 297, 738, 522, -182, -330, 14, -11, -172, -88, -52, -105, -76, -43, -69, -76, -47, -40, -43, -23, -4, 11, 40, 64]"
1714134343913197472,"[74, 79, 76, 50, 2, -43, -7, 64, 4, -74, -62, -93, -127, -86, -86, -131, -122, -69, -57, -59, -31, -33, -76, -86, -52, -40, -62, -69, -67, -71, -67, -47, -55, -83, -110, -86, 158, 536, 532, -21, -333, -45, 71, -110, -93, -4, -38, -52, -16, -4, -2, 9, 14, 19, 31, 28, 28, 55, 81, 100, 110, 105, 100, 110, 110, 93, 86, 76, 40, 2, -28, -62, -79]"
1714134344474265815,"[-71, -62, -52, -45, -47, -45, -43, -45, -35, -28, -35, -35, -19, -26, -55, -55, -45, -55, -52, -38, -52, -134, -186, 81, 632, 810, 222, -297, -91, 74, -103, -95, 0, -45, -62, -19, -7, 2, 21, 23, 23, 38, 57, 74, 83, 83, 83, 95, 107, 112, 117, 112, 98, 88, 83, 67, 43, 26, 2, -9, 4, 11, 7, -11, -35, -23, -2, 2, 9, 9, -11, -23, -4]"
1714134345035334162,"[9, 9, -4, -33, -47, -35, -28, -16, -9, -47, -83, -69, -50, -50, -47, -55, -91, -146, 31, 663, 1239, 869, -76, -275, 71, 7, -155, -59, -16, -57, -26, 7, -11, -11, 19, 35, 31, 31, 38, 47, 69, 88, 103, 112, 107, 107, 124, 129, 124, 115, 100, 83, 74, 59, 43, 21, -16, -47, -40, -21, -16, -21, -21, -16, -2, 0, -9, -23, -43, -64, -69, -62, -64]"
1714134345596402505,"[-67, -62, -59, -52, -47, -47, -38, -23, -33, -33, -7, 7, -4, -19, -33, -38, -33, -26, -14, -4, -14, -43, 7, 364, 953, 1068, 321, -311, -100, 83, -107, -107, -4, -40, -52, -9, -4, -7, 4, 16, 31, 43, 52, 62, 64, 71, 95, 110, 91, 76, 86, 103, 110, 91, 64, 52, 26, -11, -21, -40, -91, -110, -86, -71, -88, -83, -45, -45, -69, -45, -11, -19, -9]"
1714134346157470848,"[14, 2, 2, 16, 11, 19, 35, 31, 19, 9, 7, 9, 14, 14, 16, 21, 14, 4, 21, 35, 19, 9, 19, 26, 19, 4, 11, 26, 35, 52, 64, 40, 7, 7, 33, 52, 40, 28, 45, 45, 150, 498, 776, 493, -146, -297, 14, 47, -93, -57, -19, -67, -45, 2, -16, -28, -9, -9, -14, 2, 23, 43, 55, 79, 112, 119, 110, 119, 134, 139, 141, 129, 119]"
1714134346718529021,"[117, 103, 95, 91, 59, 14, -11, -33, -38, -31, -43, -55, -40, -28, -23, -21, -33, -40, -19, -7, -26, -33, -2, 11, -7, -19, -23, -35, -38, -40, -50, -45, -43, -64, -81, -69, -52, -47, -50, -55, -55, -57, -62, -55, -38, -31, -16, 110, 421, 726, 599, -7, -311, -28, 74, -76, -26, 64, 19, -2, 35, 59, 64, 83, 110, 119, 127, 150, 177, 184, 194, 213, 242]"
1714134347279577016,"[278, 278, 249, 246, 249, 230, 215, 210, 189, 115, 26, -9, -21, -47, -74, -81, -71, -74, -74, -55, -45, -31, -2, -2, -14, -9, -26, -33, 0, -2, -23, 0, 11, -7, -7, 4, 2, -4, 4, 26, 40, 35, 38, 59, 64, 47, 50, 47, 50, 74, 81, 59, 31, 98, 438, 963, 1155, 556, -165, -76, 201, 45, -40, 55, 52, 4, 23, 47, 43, 43, 55, 57, 55]"
1714134347840645359,"[71, 76, 64, 79, 100, 115, 131, 134, 134, 150, 160, 155, 148, 129, 95, 52, 7, -38, -95, -129, -110, -100, -119, -107, -98, -112, -103, -71, -69, -81, -69, -52, -47, -50, -40, -14, 0, 2, 23, 40, 23, 14, 31, 45, 47, 57, 71, 64, 40, 35, 40, 35, 67, 95, 55, 23, 28, 16, 7, 9, 4, -2, 0, 16, 26, 14, 7, 26, 47, 47, 35, 38, 47]"
1714134348401713706,"[55, 64, 69, 67, 59, 64, 83, 76, 52, 40, 33, 28, 28, 26, 9, 33, 318, 917, 1301, 771, -179, -261, 129, 31, -117, 7, 45, -16, 9, 45, 19, 14, 38, 35, 59, 105, 86, 55, 71, 95, 107, 124, 150, 174, 174, 153, 136, 127, 103, 76, 62, 35, -9, -47, -62, -71, -91, -105, -93, -81, -59, -16, -11, -35, -26, 9, 31, 31, 19, 38, 76, 71, 57]"
1714134348962782049,"[67, 47, 11, 19, 35, 31, 33, 23, 2, 19, 52, 71, 50, 0, 0, 45, 47, 21, 28, 31, 9, 23, 52, 50, 28, 21, 31, 40, 47, 52, 35, 2, 9, 40, 40, 31, 31, 28, 43, 55, 40, 26, 21, 7, -2, 9, 14, 19, 38, 64, 74, 62, 47, 52, 59, 64, 64, 69, 64, 115, 433, 1004, 1270, 659, -167, -119, 196, 33, -79, 35, 35, -14, 19]"
1714134349523850392,"[45, 45, 67, 91, 95, 110, 131, 143, 160, 182, 179, 174, 206, 237, 254, 273, 287, 287, 292, 297, 289, 280, 261, 225, 189, 160, 141, 131, 112, 95, 107, 131, 127, 122, 134, 134, 124, 129, 139, 139, 139, 146, 155, 165, 165, 146, 127, 124, 117, 112, 107, 95, 98, 95, 79, 83, 112, 105, 81, 81, 62, 21, 14, 23, 26, 38, 50, 59, 74, 79, 83, 103, 117]"
1714134350084918735,"[110, 103, 115, 122, 119, 124, 127, 105, 79, 81, 95, 98, 100, 103, 105, 122, 131, 127, 129, 134, 127, 117, 122, 127, 119, 117, 141, 177, 186, 158, 131, 136, 155, 165, 172, 160, 127, 182, 488, 929, 1085, 589, -69, -40, 225, 105, 45, 177, 158, 86, 117, 139, 110, 76, 71, 93, 100, 98, 124, 134, 134, 179, 218, 201, 194, 222, 218, 201, 213, 237, 239, 210, 189]"
1714134350645987078,"[182, 153, 117, 93, 55, 14, 26, 59, 59, 64, 88, 103, 107, 117, 129, 127, 112, 100, 95, 86, 83, 76, 45, 16, 14, 14, -4, -31, -47, -47, -28, -11, 7, 0, -31, -33, -26, -28, -28, -28, -33, -38, -33, -23, -16, -38, -74, -71, -28, 2, 2, -7, -26, -40, -14, 16, 28, 47, 59, 47, 7, -16, 33, 91, 50, 14, 64, 112, 115, 93, 40, -7, 14]"
1714134351207055421,"[55, 47, 19, 2, -7, 91, 419, 814, 807, 206, -278, -93, 79, -79, -100, -38, -57, 19, 95, 16, -16, 31, 31, 33, 69, 81, 86, 105, 112, 129, 160, 172, 184, 201, 191, 186, 206, 208, 174, 134, 122, 112, 86, 59, 43, 26, 19, 28, 26, 7, 9, 33, 26, 19, 45, 35, 9, 31, 52, 33, 21, 33, 35, 26, 23, 19, 2, -9, 2, 9, 2, -2, 4]"
1714134351768123768,"[14, 7, -11, -16, -21, -52, -74, -64, -64, -71, -79, -88, -64, -26, -21, -23, -26, -47, -67, -50, -33, -57, -67, -35, -14, 83, 426, 853, 754, 23, -369, -112, -45, -208, -155, -86, -107, -86, -76, -91, -64, -40, -45, -21, 19, 21, 14, 38, 79, 105, 117, 134, 158, 189, 206, 191, 203, 213, 155, 122, 139, 115, 67, 35, 19, 9, 4, -11, -7, 19, 7, -9, 16]"
1714134352329192111,"[28, 9, 2, 2, 11, 40, 67, 50, -21, -55, -4, 21, 7, 11, 16, 16, 21, 0, -7, 0, 0, 19, 9, -35, -31, 9, -2, -57, -38, 19, 26, 21, 4, -26, -19, -9, -26, -16, -9, -45, -81, 28, 412, 889, 910, 237, -297, -95, 55, -127, -127, -38, -69, -71, -28, -33, -67, -79, -26, 76, 119, 67, 50, 88, 86, 71, 112, 167, 172, 174, 196, 194, 177]"
1714134352890260454,"[182, 189, 172, 139, 122, 107, 67, 21, -7, -14, -16, -31, -47, -40, -28, -35, -52, -59, -43, -19, -9, 0, 7, -9, -23, -11, 2, -4, -7, 2, 7, 9, 33, 50, 47, 47, 52, 62, 64, 62, 69, 88, 110, 107, 93, 88, 93, 88, 86, 93, 98, 83, 64, 191, 584, 1004, 898, 162, -261, 33, 170, -9, 9, 88, 55, 52, 79, 69, 79, 103, 98, 93, 103]"
1714134353451298279,"[105, 117, 139, 150, 167, 194, 198, 206, 227, 213, 170, 158, 150, 127, 98, 67, 33, 14, -7, -28, -35, -28, -23, -19, -11, 0, 11, 23, 31, 40, 40, 26, 11, 23, 35, 31, 40, 47, 43, 40, 52, 62, 55, 43, 47, 62, 69, 67, 64, 64, 76, 91, 81, 52, 45, 47, 43, 50, 62, 64, 52, 71, 309, 752, 951, 467, -225, -203, 143, 69, -43, 62, 81]"
1714134354012366622,"[16, 35, 47, 14, 19, 23, -7, -11, 16, 26, 28, 38, 52, 76, 100, 115, 122, 127, 131, 139, 134, 127, 124, 105, 57, 33, 45, 47, 52, 43, 33, 69, 81, 50, 11, -45, -52, 47, 155, 86, -43, -7, 74, 67, 55, 67, 69, 28, -31, -2, 107, 141, 19, -59, -43, -35, 9, 93, 112, 57, 2, -9, 14, 23, 7, 31, 79, 33, -31, 28, 62, 7, 28]"
1714134354573434965,"[52, -7, -31, -47, -67, 201, 774, 1155, 853, 40, -299, -2, 35, -150, -100, -40, -93, -81, -33, -26, -31, -21, -9, 16, 50, 64, 79, 107, 127, 143, 162, 179, 186, 189, 189, 189, 196, 206, 194, 172, 162, 143, 112, 105, 100, 74, 57, 67, 79, 88, 98, 107, 107, 117, 129, 131, 124, 131, 141, 136, 127, 112, 95, 95, 105, 112, 112, 115, 117, 115, 115, 115, 115]"
1714134355134503312,"[107, 95, 93, 93, 86, 69, 47, 47, 71, 95, 105, 105, 86, 71, 91, 100, 91, 103, 91, 50, 160, 539, 951, 867, 194, -210, 38, 155, -16, -9, 52, 0, -11, 33, 38, 33, 40, 45, 55, 74, 91, 107, 136, 158, 174, 201, 230, 244, 244, 244, 213, 179, 179, 182, 158, 141, 136, 88, 21, -7, 2, 0, -7, -7, 4, 14, 26, 45, 38, 26, 40, 45, 40]"
1714134355695571655,"[52, 62, 69, 71, 71, 88, 105, 95, 88, 91, 74, 74, 98, 105, 100, 100, 100, 107, 127, 129, 115, 98, 105, 129, 146, 158, 160, 122, 74, 79, 98, 88, 79, 81, 62, 40, 198, 644, 1052, 860, 117, -222, 62, 122, -69, -31, 52, -11, -67, -57, -57, -69, -52, -23, -19, -14, 7, 26, 43, 67, 79, 86, 98, 112, 122, 134, 143, 136, 117, 119, 122, 112, 105]"
1714134356256639998,"[74, 40, 45, 52, 47, 57, 55, 31, 43, 69, 64, 59, 50, 21, 23, 43, 35, 35, 33, 9, 7, 23, 26, 21, 14, 9, 9, 11, 21, 21, 9, 14, 28, 23, 31, 43, 38, 43, 71, 69, 28, 11, 9, 2, 19, 38, 47, 43, 19, 38, 278, 728, 968, 548, -146, -215, 83, 33, -71, 7, 9, -33, 4, 28, 0, -14, -4, -2, 4, 23, 47, 62, 76]"
1714134356817677823,"[95, 119, 136, 150, 160, 155, 153, 158, 160, 146, 127, 115, 100, 76, 55, 31, 7, -2, 2, 7, 9, 9, 9, 7, 4, 2, 9, 14, 9, 4, 7, 0, -21, -23, -9, -4, 4, 21, 21, 19, 26, 16, 0, 4, 19, 21, 16, 21, 38, 47, 52, 67, 93, 112, 100, 79, 71, 67, 76, 88, 88, 83, 67, 83, 311, 718, 922, 532, -115, -179, 105, 47, -69]"
1714134357378746166,"[11, 19, -33, -11, 0, -19, -31, -45, -50, -28, -4, 2, 14, 38, 69, 88, 100, 119, 131, 131, 136, 141, 136, 119, 86, 59, 62, 57, 31, 11, 11, 14, 4, -9, -7, 0, -9, -11, 9, 9, -2, 0, 4, 7, 14, 21, 21, 11, 4, 11, 26, 35, 38, 43, 43, 45, 62, 71, 69, 69, 69, 79, 86, 83, 67, 50, 55, 81, 107, 105, 71, 47, 45]"
1714134357939814509,"[47, 47, 43, 31, -4, -38, 86, 491, 937, 865, 155, -287, -33, 91, -79, -59, -2, -67, -76, -23, -16, -23, -7, 4, 2, 14, 52, 88, 95, 105, 136, 165, 182, 189, 194, 182, 174, 184, 179, 153, 134, 124, 112, 88, 69, 62, 55, 47, 57, 71, 74, 67, 59, 69, 79, 74, 57, 43, 43, 59, 67, 64, 71, 74, 69, 67, 76, 88, 83, 67, 69, 81, 81]"
1714134358500882856,"[88, 93, 81, 76, 86, 91, 88, 69, 35, 26, 52, 64, 35, 16, 11, -7, -7, 16, 9, -16, -23, 55, 369, 805, 867, 292, -244, -93, 112, -40, -88, -7, -19, -38, -9, 2, 11, 28, 33, 45, 76, 93, 103, 119, 141, 165, 184, 191, 194, 201, 203, 201, 201, 203, 191, 172, 162, 141, 110, 98, 95, 81, 76, 81, 81, 79, 83, 86, 86, 79, 79, 79, 79]"
1714134359061951199,"[79, 62, 31, 31, 45, 33, 19, 19, 23, 26, 4, -19, -7, 7, 14, 26, 31, 26, 31, 43, 40, 28, 38, 59, 86, 95, 79, 47, 38, 50, 62, 62, 62, 55, 19, 33, 273, 697, 917, 529, -127, -196, 93, 26, -98, -16, -9, -55, -16, 7, -9, 0, 16, 19, 35, 62, 69, 74, 100, 127, 141, 155, 172, 184, 186, 182, 162, 134, 127, 119, 86, 52, 45]"
1714134359623019542,"[33, 11, 4, 9, 14, 19, 26, 11, -14, -9, 11, 14, 7, 4, 7, 16, 28, 35, 33, 26, 26, 35, 45, 55, 57, 50, 47, 62, 64, 43, 35, 38, 33, 43, 55, 47, 43, 57, 76, 88, 79, 57, 40, 43, 50, 47, 55, 71, 38, 16, 244, 721, 994, 606, -88, -196, 95, 52, -71, -19, -31, -103, -93, -59, -52, -47, -50, -47, -19, 11, 23, 31, 57]"
1714134360184087885,"[79, 91, 119, 143, 146, 146, 148, 143, 131, 134, 124, 71, 31, 31, 21, 2, -4, -9, -11, -7, -11, -16, -11, -9, -2, 0, -2, 7, 4, -11, -4, 14, 16, 11, 16, 21, 9, 9, 38, 50, 33, 31, 45, 40, 38, 52, 52, 45, 55, 59, 55, 50, 33, 4, 2, 26, 50, 64, 64, 35, 11, 21, 31, 21, 7, 16, 21, -2, 98, 481, 915, 908, 261]"
1714134360745156228,"[-278, -91, 98, -74, -100, -11, -35, -59, -47, -50, -40, -35, -50, -21, 11, 16, 38, 69, 76, 107, 141, 143, 153, 170, 165, 148, 141, 131, 115, 91, 69, 38, -2, -14, -16, -23, -14, -16, -23, -11, 7, 19, 11, 0, 0, -11, -35, -26, -2, -16, -23, 0, 4, -2, 9, 11, 7, 11, 23, 28, 26, 14, 14, 38, 50, 40, 43, 50, 62, 83, 95, 93, 74]"
1714134361306194053,"[35, 26, 35, 7, -26, -33, -59, -95, -76, 129, 589, 980, 716, -81, -349, -23, -2, -172, -107, -52, -86, -57, -21, -31, -16, 14, 35, 59, 79, 83, 100, 141, 177, 189, 194, 210, 225, 208, 186, 179, 162, 136, 110, 79, 45, 16, -16, -26, -19, -16, -9, 2, 2, 9, 31, 57, 74, 50, 38, 67, 81, 71, 69, 79, 71, 59, 59, 50, 47, 57, 45, 33, 55]"
1714134361867262400,"[62, 43, 45, 62, 55, 45, 57, 67, 52, 28, 35, 52, 57, 67, 74, 55, 59, 103, 124, 112, 81, 52, 45, 64, 71, 47, 28, 26, 14, -11, 50, 349, 762, 819, 225, -342, -177, 55, -103, -141, -28, -38, -59, -23, -7, -4, 7, 35, 67, 71, 74, 100, 136, 160, 186, 213, 220, 215, 225, 232, 220, 210, 203, 174, 139, 112, 79, 35, 14, 7, 0, -2, 9]"
1714134362428330743,"[16, 11, 23, 45, 47, 45, 52, 47, 45, 59, 64, 40, 14, 9, 21, 26, 11, -14, -21, -4, -2, -4, 0, -16, -38, -28, -21, -21, -16, -11, -11, -7, -7, -9, -16, -31, -33, -28, -28, -16, -16, -26, -21, -21, -38, -33, -7, -16, -50, -67, -79, -88, -79, -71, -64, -45, -45, -64, 2, 321, 781, 932, 412, -251, -213, 81, -7, -91, 14, 31, -2, 28, 55]"
1714134362989399086,"[50, 74, 103, 98, 112, 150, 162, 165, 172, 172, 186, 227, 258, 266, 270, 263, 227, 196, 182, 139, 83, 55, 35, 9, -2, -7, -16, -19, -4, 4, 7, 19, 33, 38, 55, 74, 71, 69, 76, 67, 55, 62, 67, 55, 52, 59, 67, 69, 57, 43, 40, 52, 57, 50, 50, 50, 45, 55, 59, 40, 31, 23, 2, 4, 23, 23, 21, 21, 16, 26, 35, 23, 2]"
1714134363550467429,"[-2, 11, 23, 19, 21, 31, 2, -21, 4, -9, -59, -52, -23, -28, -28, 4, 45, 52, 38, 31, 23, 19, 31, 23, 11, 38, 55, 14, 33, 316, 838, 1224, 877, -19, -263, 81, 31, -119, 2, 35, -26, 2, 38, 47, 62, 69, 83, 100, 105, 122, 162, 191, 210, 237, 244, 254, 278, 280, 275, 273, 270, 254, 196, 110, 43, -2, -33, -47, -67, -74, -57, -50, -57]"
1714134364111535772,"[-64, -74, -107, -119, -93, -83, -79, -64, -74, -95, -98, -86, -67, -52, -57, -59, -40, -28, -26, -19, -16, -21, -28, -40, -35, -26, -23, -16, -16, -26, -14, 7, 14, 11, 19, 23, 16, 16, 16, 11, 14, 14, 14, 38, 74, 88, 62, 35, 43, 59, 57, 43, 40, 47, 40, 31, 35, 38, 47, 69, 91, 71, 26, 26, 47, 35, 26, 35, 19, -9, -23, 79, 450]"
1714134364672604115,"[946, 1068, 455, -230, -139, 110, -47, -122, -23, -38, -64, -14, 2, -2, 23, 43, 40, 31, 14, 19, 40, 45, 57, 83, 100, 122, 155, 165, 167, 177, 158, 129, 103, 55, -2, -40, -64, -74, -62, -50, -62, -64, -47, -45, -45, -38, -38, -28, -7, 7, 14, 26, 33, 33, 38, 50, 62, 52, 40, 38, 21, -9, -11, 9, 9, -7, -7, 21, 38, 19, 7, 16, 9]"
1714134365233672462,"[4, 16, 31, 31, 14, 4, 26, 43, 35, 14, -4, 2, 19, 21, 26, 21, 11, 33, 55, 55, 47, 40, 38, 38, 38, 43, 47, 47, 52, 59, 55, 52, 47, 26, 16, 11, -2, -9, -7, -7, -4, 7, 28, 43, 43, 33, 21, 21, 23, 19, 31, 35, 14, -21, -43, 57, 390, 843, 1004, 464, -218, -162, 98, -45, -115, 0, -4, -40, -7, 0, -7, 14, 43]"
1714134365794740805,"[55, 55, 71, 95, 88, 98, 141, 150, 158, 203, 232, 227, 208, 184, 177, 165, 131, 88, 43, -11, -47, -62, -69, -64, -57, -62, -59, -71, -95, -76, -52, -59, -57, -28, -9, -4, -2, -7, -4, 11, 21, 23, 16, -4, -16, 0, -9, -59, -67, -38, -45, -55, -35, -33, -55, -64, -71, -69, -59, -59, -76, -74, -55, -50, -55, -45, -35, -35, -33, -23, -16, -9, 0]"
1714134366355778630,"[2, -2, 0, 9, 19, 26, 23, 14, 23, 31, 19, 7, 9, 16, 21, 16, 19, 43, 55, 45, 50, 45, 26, 33, 43, 40, 50, 55, 38, 50, 246, 692, 1104, 944, 170, -246, 38, 143, -43, -40, 19, -7, -7, 23, 31, 40, 55, 52, 55, 79, 91, 81, 95, 134, 153, 177, 215, 251, 273, 299, 313, 282, 249, 230, 196, 134, 74, 31, 0, -16, -11, -9, -23]"
1714134366916846973,"[-35, -40, -33, -21, -16, -11, -11, -33, -47, -52, -67, -74, -69, -76, -81, -59, -40, -43, -45, -43, -45, -35, -11, -9, -23, -23, -9, -2, -2, 9, 14, -4, -23, -16, 4, 4, -4, 0, 16, 23, 21, 26, 28, 40, 59, 64, 57, 43, 28, 33, 52, 69, 79, 67, 43, 139, 498, 963, 1066, 486, -170, -91, 177, 55, -11, 83, 67, 38, 81, 91, 79, 86, 98]"
1714134367477915316,"[107, 110, 110, 136, 160, 165, 182, 227, 270, 285, 289, 292, 299, 313, 304, 266, 203, 134, 81, 43, 19, 11, -2, -16, -21, -38, -40, -23, -23, -26, -9, 4, 4, -9, -14, -2, 7, 26, 43, 40, 33, 31, 26, 28, 35, 33, 31, 33, 28, 28, 43, 40, 9, -7, -2, 2, 4, 4, -4, -14, -7, 9, 9, 2, -2, -11, -9, 4, 7, 11, 16, 19, 28]"
1714134368038983659,"[35, 33, 31, 33, 33, 43, 55, 43, 19, 16, 31, 31, 33, 35, 38, 40, 31, 4, -7, 23, 55, 55, 47, 33, 7, 0, 23, 31, 19, 31, 33, 14, 172, 651, 1159, 1092, 297, -239, -19, 105, -69, -50, 33, -11, -19, 31, 28, 16, 35, 47, 57, 79, 88, 103, 131, 139, 134, 153, 179, 201, 227, 244, 249, 246, 239, 225, 186, 122, 71, 45, 21, -2, -11]"
1714134368600052006,"[-7, -7, -2, 4, -4, -21, -19, -14, -16, -21, -40, -59, -50, -38, -47, -69, -64, -50, -50, -40, -21, -31, -47, -50, -59, -71, -59, -50, -55, -55, -43, -40, -45, -38, -31, -31, -26, -11, -7, -14, -14, -4, 4, 9, 11, 14, 16, 4, 2, 23, 26, 9, 16, 31, 35, 40, 43, 40, 47, 55, 52, 59, 83, 98, 95, 93, 88, 79, 74, 62, 59, 79, 86]"
1714134369161120349,"[64, 38, 117, 455, 970, 1109, 457, -227, -158, 33, -98, -122, -26, -47, -79, -45, -21, -19, -2, 9, 4, 21, 45, 64, 81, 95, 105, 127, 160, 189, 213, 227, 232, 232, 232, 220, 189, 139, 74, 31, 21, 16, 9, -2, -4, 9, 23, 31, 35, 31, 33, 47, 59, 67, 76, 74, 69, 79, 88, 91, 88, 81, 76, 83, 88, 86, 83, 67, 28, -7, -16, -11, -16]"
1714134369722188692,"[-26, -28, -21, -4, 4, -11, -45, -43, -33, -47, -50, -50, -74, -71, -45, -40, -52, -47, -38, -43, -31, -19, -19, -23, -23, -19, -9, 2, 19, 21, 19, 23, 21, 14, 9, 9, 19, 26, 35, 47, 31, 33, 230, 654, 1004, 793, 79, -227, 38, 81, -67, -11, 38, -7, 2, 28, 14, 14, 38, 35, 33, 35, 47, 67, 62, 74, 117, 134, 143, 182, 215, 225, 230]"
1714134370283226517,"[249, 263, 234, 177, 124, 71, 21, -19, -59, -83, -76, -62, -59, -52, -38, -31, -16, -7, -11, -14, -16, -11, 11, 16, -9, -7, 9, 11, 21, 26, 19, 19, 26, 26, 33, 40, 33, 26, 23, 23, 31, 38, 35, 26, 19, 19, 19, 14, 11, 11, 16, 16, 0, -28, -50, -57, -52, -47, -55, -67, -69, -64, -59, -43, -23, -23, -47, 0, 301, 776, 963, 486, -186]"
1714134370844289777,"[-208, 67, -4, -93, -9, -14, -67, -38, -9, -16, -7, 2, 0, 14, 43, 67, 83, 100, 122, 155, 189, 222, 258, 268, 266, 273, 270, 239, 184, 117, 59, 21, 0, -11, -26, -43, -45, -26, -9, 0, 4, -2, -9, -9, -9, 0, 7, -14, -23, 2, 21, 19, 19, 19, 19, 19, 14, 23, 38, 28, 26, 35, 45, 69, 86, 64, 45, 50, 52, 43, 31, 33, 47]"
1714134371405332685,"[47, 16, 19, 249, 742, 1080, 702, -100, -292, -4, -43, -162, -71, -38, -81, -67, -40, -35, -14, 11, 14, 16, 38, 64, 83, 110, 146, 174, 198, 230, 268, 289, 287, 273, 246, 194, 124, 62, 14, -35, -88, -103, -83, -83, -95, -79, -59, -52, -35, -19, -19, -9, 4, 11, 35, 47, 31, 33, 52, 59, 64, 64, 57, 62, 62, 55, 47, 40, 38, 47, 43, 38, 57]"
1714134371966370514,"[67, 69, 86, 86, 69, 59, 40, 23, 28, 26, 31, 45, 16, -16, 136, 606, 1145, 1100, 268, -280, -19, 107, -81, -47, 35, -23, -40, 7, 16, 2, 19, 50, 55, 33, 28, 57, 93, 129, 146, 162, 208, 254, 266, 266, 273, 256, 208, 146, 79, 33, 9, -26, -50, -52, -45, -50, -74, -95, -88, -76, -86, -83, -59, -52, -50, -45, -38, -26, -21, -19, -7, -14, -11]"
1714134372527438857,"[14, 14, 0, 9, 16, 16, 31, 33, 16, 0, -2, 0, 9, 19, 19, 11, 2, -9, 2, 31, 45, 43, 33, 26, 14, -9, -26, -19, -4, 0, 0, -19, 50, 431, 1016, 1203, 534, -234, -155, 110, -38, -93, 21, 4, -35, 7, 28, 23, 31, 26, 23, 47, 71, 93, 115, 136, 153, 177, 213, 246, 275, 292, 287, 280, 273, 234, 174, 115, 59, 23, 11, 9, 9]"
1714134373088476682,"[2, -4, -2, 4, 4, 9, 14, 4, -7, 0, 11, 11, -9, -26, -14, -2, -11, -33, -57, -59, -33, -19, -16, -7, -4, -14, -16, -11, -11, -19, -21, -19, -11, 0, 7, 14, 14, 7, 7, 16, 23, 23, 21, 28, 57, 86, 76, 57, 47, 47, 57, 64, 69, 76, 81, 50, 64, 325, 853, 1251, 922, 47, -222, 119, 105, -76, 7, 62, -2, 0, 52, 74, 47]"
1714134373649545025,"[35, 74, 105, 88, 83, 119, 150, 167, 194, 215, 220, 227, 244, 263, 273, 254, 213, 172, 136, 93, 57, 33, 21, 26, 28, 28, 43, 55, 59, 64, 59, 52, 55, 59, 74, 76, 71, 79, 88, 83, 83, 86, 83, 83, 86, 76, 74, 76, 71, 67, 67, 62, 59, 57, 47, 38, 23, 16, 19, 16, 9, 19, 21, 4, -2, -7, -19, -23, -31, -33, -19, -14, -16]"
1714134374210582850,"[-7, -4, -26, -33, -16, -14, -23, -16, 4, 26, 26, 9, -2, 0, 11, 23, 28, 33, 33, 14, 26, 239, 690, 1080, 850, 45, -282, 31, 64, -112, -52, 11, -33, -21, 11, 2, 4, 23, 31, 43, 59, 69, 76, 91, 115, 141, 170, 196, 222, 242, 246, 249, 246, 213, 162, 119, 91, 55, 11, -16, -23, -11, 2, 14, 26, 23, 16, 7, -7, 4, 19, 16, 26]"
1714134374771651193,"[52, 57, 57, 69, 45, 21, 43, 50, 31, 31, 33, 26, 31, 38, 33, 35, 43, 28, 7, 2, 0, -7, -14, -7, 7, 2, -7, -4, -2, 7, 21, 23, 28, 28, 11, 21, 52, 62, 57, 52, 50, 50, 62, 86, 91, 71, 52, 33, 28, 35, 38, 33, 33, 38, 33, 21, 93, 388, 843, 1018, 474, -230, -194, 93, -19, -105, 0, 16, -26, -7, 21, 26, 35]"
1714134375332719540,"[59, 74, 71, 76, 88, 105, 117, 119, 127, 153, 189, 222, 242, 244, 234, 225, 203, 155, 100, 57, 21, 0, -2, -4, -7, -11, -16, -23, -28, -16, -9, -14, -11, 0, 2, 7, 4, -4, 2, 7, 2, 16, 19, 9, 16, 21, 14, 21, 40, 35, 21, 31, 31, -9, -23, 16, 38, 21, 19, 31, 35, 52, 59, 50, 52, 69, 69, 69, 64, 47, 52, 69, 62]"
1714134375893757365,"[69, 83, 81, 83, 91, 98, 117, 127, 122, 107, 71, 43, 55, 71, 69, 67, 67, 57, 57, 201, 589, 1011, 968, 289, -203, 2, 143, -47, -71, 19, 2, -7, 26, 26, 21, 50, 67, 52, 52, 64, 64, 76, 110, 131, 148, 162, 170, 182, 203, 208, 198, 191, 162, 112, 64, 19, -23, -45, -57, -74, -81, -74, -71, -74, -62, -47, -38, -35, -31, -26, -19, -11, -2]"
1714134376454825708,"[4, 4, 2, 9, 16, 21, 23, 7, -21, -16, 7, 11, 9, 7, 4, 11, 23, 23, 9, -4, 0, 14, 19, 28, 45, 55, 64, 69, 55, 43, 45, 45, 45, 59, 74, 76, 57, 50, 206, 596, 963, 802, 93, -266, 23, 124, -50, -19, 59, 9, -4, 31, 43, 50, 59, 55, 55, 74, 86, 93, 105, 119, 146, 182, 215, 239, 251, 249, 251, 251, 230, 177, 107]"
1714134377015894051,"[45, 9, -9, -23, -28, -35, -40, -31, -19, -23, -40, -52, -52, -35, -16, -7, -4, -7, -2, 9, 19, 23, 23, 19, 21, 26, 33, 40, 40, 35, 33, 19, 4, 14, 26, 19, 21, 33, 38, 43, 47, 38, 31, 52, 76, 81, 74, 57, 43, 47, 57, 59, 62, 67, 67, 55, 55, 218, 639, 1073, 965, 218, -232, 33, 146, -35, -9, 76, 35, 19, 43, 33, 26]"
1714134377576957311,"[33, 31, 33, 52, 64, 74, 93, 100, 86, 93, 119, 141, 158, 174, 179, 172, 158, 122, 69, 21, -16, -40, -52, -74, -105, -124, -107, -79, -74, -81, -64, -43, -50, -59, -40, -28, -31, -16, -2, -4, -7, 0, 0, -7, 11, 16, -2, 16, 55, 55, 43, 43, 31, -7, 26, 136, 107, 2, 45, 103, 119, 174, 191, 153, 98, 59, 62, 67, 76, 98, 119, 105, 47]"
1714134378138000219,"[35, 218, 639, 1078, 1037, 309, -266, -57, 134, -59, -88, 31, 11, -28, -7, -7, -21, -19, 2, 31, 38, 45, 83, 110, 100, 112, 131, 177, 258, 251, 220, 249, 254, 232, 198, 112, 21, -7, 14, -2, -67, -98, -81, -26, 7, -52, -150, -165, -110, -95, -117, -105, -88, -98, -95, -79, -105, -110, -74, -57, -59, -64, -57, -43, -43, -67, -43, 11, 7, -9, -14, -31, -26]"
1714134378699068566,"[-7, -7, -23, -19, -7, -16, -26, 76, 412, 836, 862, 203, -400, -203, 62, -115, -155, -33, -67, -76, -14, -47, -52, 19, 28, 7, 21, 52, 86, 107, 112, 131, 182, 218, 242, 280, 292, 278, 268, 227, 150, 88, 45, -2, -28, -38, -62, -71, -55, -57, -79, -67, -33, -33, -38, -33, -26, -4, 11, -2, -16, 0, 26, 31, 4, -11, 11, 45, 26, -9, -2, 28, 33]"
1714134379260106391,"[16, -23, -71, -79, -57, -67, -91, -86, -88, -105, 4, 376, 807, 771, 38, -500, -203, 19, -182, -179, -62, -100, -115, -59, -47, -62, -43, -7, 11, 16, 31, 59, 81, 110, 165, 191, 194, 218, 230, 218, 206, 189, 146, 79, 28, -2, -45, -81, -55, 16, 45, 9, -14, 26, 62, 35, 40, 52, 9, 69, 158, 98, 35, 67, 103, 112, 115, 119, 107, 52, 16, 81, 122]"
1714134379821144216,"[50, 23, 76, 100, 43, 35, 148, 182, 115, 107, 155, 167, 129, 74, 45, 88, 160, 165, 122, 100, 110, 98, 64, 143, 488, 1032, 1224, 546, -230, -127, 146, -11, -76, 11, 2, 2, 28, 11, 4, 50, 83, 83, 81, 67, 76, 127, 148, 131, 143, 196, 232, 230, 242, 254, 220, 196, 184, 117, 45, 26, -9, -103, -131, -71, -55, -91, -88, -26, -14, -62, -55, -35, -55]"
1714134380382212559,"[-45, -23, -21, 2, -2, -40, -64, -62, -43, -38, -35, -35, -62, -47, -9, -19, -21, 16, 7, -26, -28, -35, -19, 21, 2, -9, 55, 83, 52, 26, 0, -7, 19, 43, 35, 19, 21, 19, -9, 43, 376, 975, 1255, 637, -182, -153, 146, -9, -86, 88, 81, -4, 14, 0, -14, 35, 47, 31, 38, 45, 50, 91, 115, 93, 83, 83, 119, 198, 196, 150, 146, 122, 62]"
1714134380943250384,"[-7, -52, -47, -45, -86, -119, -112, -98, -91, -100, -134, -139, -91, -74, -86, -50, -21, -43, -47, -19, 9, 16, 4, 9, 31, 43, 55, 69, 57, 55, 86, 81, 57, 59, 74, 88, 91, 81, 74, 62, 52, 69, 83, 59, 38, 33, -2, -14, 38, 64, 45, 23, 14, 23, 40, 62, 62, 55, 67, 62, 35, 55, 297, 850, 1275, 853, -33, -174, 160, 83, -45, 62, 64]"
1714134381504318727,"[16, 57, 47, 19, 62, 81, 50, 40, 50, 47, 55, 93, 115, 112, 131, 153, 167, 208, 225, 196, 189, 162, 93, 57, 31, -11, -31, -31, -35, -31, -21, -11, -2, -4, -23, -31, -11, -26, -40, -4, -2, -19, 4, 19, 11, 19, 23, 19, 23, 33, 40, 43, 38, 33, 35, 43, 45, 43, 45, 45, 45, 55, 62, 59, 59, 62, 57, 50, 62, 69, 62, 62, 71]"
1714134382065356556,"[79, 86, 88, 71, 50, 50, 62, 79, 105, 107, 88, 74, 38, -19, -28, 2, 23, 59, 98, 79, 9, 76, 428, 877, 941, 323, -287, -177, 33, -107, -162, -95, -117, -139, -98, -74, -76, -55, -28, -21, -9, 19, 40, 52, 79, 110, 131, 155, 184, 203, 208, 208, 208, 203, 182, 150, 105, 52, 16, 14, 23, 11, 0, 4, 16, 28, 38, 43, 40, 40, 52, 62, 71]"
1714134382626424899,"[74, 64, 57, 64, 71, 69, 64, 52, 47, 52, 52, 45, 28, 4, -9, -7, -4, -9, -14, -19, -26, -33, -35, -40, -57, -67, -55, -35, -21, -21, -28, -31, -35, -40, -21, 4, 7, -4, -16, -33, -35, -19, -11, -14, -11, -4, -9, -14, 100, 436, 781, 718, 143, -270, -74, 83, -55, -57, 28, 0, -16, 23, 28, 23, 45, 57, 59, 76, 91, 105, 127, 148, 167]"
1714134383187462724,"[189, 208, 227, 246, 261, 270, 256, 215, 170, 117, 52, 4, -11, -28, -33, -33, -55, -74, -59, -45, -43, -35, -31, -26, -26, -26, -16, -11, -7, 9, 16, 7, 11, 11, -2, -2, -4, -14, -9, -7, -19, -11, 2, 2, 2, 9, 14, 16, 21, 33, 40, 35, 40, 50, 47, 45, 67, 88, 91, 86, 71, 55, 50, 55, 62, 71, 74, 74, 59, 40, 153, 508, 905]"
1714134383748531067,"[889, 263, -234, -38, 153, 2, -26, 38, -19, -55, -4, 19, 4, 14, 35, 50, 74, 93, 93, 105, 134, 162, 189, 213, 232, 244, 258, 266, 258, 242, 201, 136, 88, 64, 40, 21, 0, -16, -14, -2, 4, 14, 11, 2, 16, 35, 28, 9, -4, -14, -9, 2, 7, 0, -4, 2, 11, 23, 31, 23, 16, 21, 16, 9, 19, 23, 11, 16, 35, 40, 38, 38, 31]"
1714134384309599410,"[23, 7, 0, 11, 14, 0, 4, 19, 21, 23, 4, -21, 0, 40, 47, 38, 28, 19, 9, 9, 21, 23, 9, 9, 19, 4, 55, 337, 781, 989, 558, -124, -174, 112, 38, -67, 26, 47, 11, 31, 40, 33, 52, 71, 81, 86, 86, 100, 127, 148, 162, 179, 194, 196, 194, 213, 230, 220, 198, 177, 136, 86, 33, -14, -52, -71, -91, -115, -127, -117, -115, -112, -93]"
1714134384870637235,"[-79, -79, -79, -62, -45, -40, -35, -40, -52, -47, -38, -31, -21, -31, -40, -31, -23, -16, -7, -2, 4, 16, 19, 21, 28, 33, 35, 43, 47, 50, 55, 59, 76, 93, 91, 79, 69, 59, 57, 57, 55, 62, 76, 69, 40, 33, 198, 596, 939, 776, 100, -254, 21, 131, -31, -9, 67, 31, 19, 52, 47, 23, 33, 50, 50, 57, 76, 93, 112, 134, 153, 182, 210]"
1714134385431705582,"[234, 249, 244, 227, 201, 155, 105, 64, 26, -9, -31, -45, -57, -50, -50, -67, -64, -50, -40, -31, -21, -19, -14, -4, 14, 26, 26, 26, 33, 38, 43, 52, 52, 50, 52, 50, 35, 38, 52, 52, 45, 52, 62, 64, 67, 62, 57, 69, 76, 76, 76, 71, 79, 76, 45, 35, 52, 47, 40, 55, 67, 69, 69, 57, 64, 88, 95, 83, 67, 55, 59, 71, 74]"
1714134385992743407,"[83, 95, 100, 103, 110, 107, 95, 76, 55, 47, 62, 76, 76, 57, 28, 124, 500, 999, 1076, 407, -208, -50, 153, -9, -33, 67, 26, -16, 26, 40, 31, 45, 59, 64, 71, 76, 86, 100, 107, 129, 165, 184, 196, 215, 218, 208, 184, 143, 112, 81, 23, -16, -35, -50, -67, -69, -67, -64, -55, -55, -62, -59, -52, -40, -23, -9, -9, -14, -7, 9, 21, 21, 21]"
1714134386553811750,"[21, 28, 40, 47, 47, 50, 50, 50, 52, 59, 62, 47, 28, 33, 45, 45, 57, 67, 45, 28, 45, 57, 47, 47, 52, 52, 57, 69, 69, 62, 64, 67, 71, 86, 86, 81, 83, 88, 83, 64, 43, 45, 55, 50, 57, 69, 67, 64, 69, 57, 52, 67, 67, 59, 64, 67, 67, 81, 103, 110, 105, 83, 57, 50, 57, 59, 64, 64, 64, 55, 23, 76, 381]"
1714134387114849575,"[831, 975, 440, -210, -167, 88, -33, -110, -9, -16, -57, -23, -4, -19, -28, -33, -19, 4, 21, 35, 47, 67, 95, 122, 139, 158, 184, 208, 220, 218, 215, 196, 143, 83, 55, 28, -4, -19, -21, -21, -14, -23, -38, -28, -14, -7, 0, 9, 11, 16, 26, 38, 45, 45, 43, 43, 47, 62, 71, 67, 62, 62, 64, 69, 79, 86, 74, 64, 76, 86, 83, 83, 79]"
1714134387675917918,"[64, 57, 69, 76, 67, 47, 28, 38, 57, 57, 40, 23, 19, 28, 38, 38, 35, 31, 33, 40, 40, 45, 40, 19, -7, -31, -38, -11, -7, -67, -86, -2, 28, 14, 40, 19, -23, 14, 40, 26, 31, 19, 0, 19, 31, -2, 35, 270, 659, 946, 690, -26, -244, 76, 105, -31, 2, 21, -23, -33, 14, 81, 86, 62, 47, 33, 50, 98, 117, 117, 131, 165, 198]"
1714134388236955743,"[222, 242, 268, 280, 278, 292, 294, 251, 189, 119, 62, 38, 14, -4, -9, -26, -28, -14, -43, -62, -38, -31, -11, 2, -59, -93, -43, -7, -35, -52, -21, -4, -11, -28, -7, 50, 35, 9, 23, 0, -35, 7, 57, 31, 7, 31, 28, 11, 19, -4, -33, 4, 16, -19, -19, -19, -47, -40, -9, -11, -9, 0, -9, 7, 31, 28, 38, 43, 38, 50, 52, 47, 47]"
1714134388798024090,"[38, 57, 71, 40, 196, 642, 985, 747, 50, -232, 33, 50, -127, -59, 26, -19, -21, 4, -7, 11, 64, 64, 35, 45, 76, 95, 107, 131, 160, 177, 215, 266, 263, 249, 270, 287, 263, 198, 131, 98, 50, -23, 4, 55, -9, -67, -26, 16, -7, -35, -2, 26, 11, 11, 47, 55, 40, 40, 47, 59, 71, 55, 38, 43, 50, 64, 83, 74, 57, 47, 38, 43, 45]"
1714134389359061915,"[16, 2, 14, 9, -11, -21, -21, -33, -59, -62, -28, -4, -2, -21, -50, -45, -16, -4, 4, 4, -7, -26, -43, 7, 294, 843, 1150, 639, -146, -184, 115, 21, -100, -9, 28, 4, 31, 38, 9, 19, 45, 57, 69, 83, 83, 76, 110, 184, 210, 206, 227, 249, 251, 263, 294, 301, 227, 165, 153, 98, 31, 14, 19, 9, 4, 23, 40, 23, -9, -19, 2, -7, -26]"
1714134389920099740,"[-21, -9, -7, -2, 23, 35, 16, 43, 69, 35, 26, 52, 35, 7, 23, 45, 45, 35, 26, 35, 57, 43, 47, 88, 55, -4, 31, 79, 28, -23, 43, 93, 50, 21, 26, 16, 4, -4, 7, 28, 21, -11, -64, -9, 383, 951, 1042, 335, -297, -127, 74, -91, -119, -23, -33, -57, -33, 0, -2, -11, -4, -28, -59, -23, 14, 4, 4, 28, 74, 122, 139, 143, 165]"
1714134390481168083,"[191, 198, 177, 124, 86, 52, -4, -43, -50, -76, -105, -93, -79, -81, -79, -59, -35, -19, -19, -40, -47, -31, -21, -16, -2, 4, 0, -4, 11, 47, 52, 31, 33, 43, 38, 31, 28, 43, 50, 35, 21, 11, 69, 136, 100, 45, 43, 38, 28, 31, 31, 62, 79, 16, -4, 45, 33, 9, 45, 23, -4, 43, 45, -9, -2, 43, 50, 21, -2, 55, 333, 834, 1114]"
1714134391042205908,"[627, -131, -167, 115, 16, -74, 0, -28, -38, 26, -4, -45, -21, -7, -16, -11, 19, 31, 28, 71, 103, 93, 110, 131, 129, 146, 150, 141, 165, 160, 93, 45, 28, -14, -59, -71, -50, -45, -83, -69, -2, 7, -31, -33, -11, -9, -16, -9, -14, -43, -38, -9, -4, -4, -7, 2, 23, 26, 33, 28, 14, 26, 43, 43, 33, 43, 59, 57, 67, 88, 71, 38, 55]"
1714134391603274251,"[71, 43, 45, 67, 33, 11, 33, 35, 31, 33, 28, 23, 50, 81, 59, 45, 93, 110, 93, 93, 86, 67, 52, 40, 62, 105, 88, 55, 67, 67, 107, 407, 860, 970, 428, -170, -95, 141, 16, -57, 4, -26, -35, 21, 16, -19, 4, 45, 45, 43, 67, 79, 86, 119, 153, 158, 172, 201, 208, 215, 225, 220, 201, 172, 139, 93, 38, -2, -28, -59, -76, -69, -62]"
1714134392164312080,"[-74, -88, -74, -55, -57, -45, -26, -64, -103, -59, -19, -33, -40, -35, -35, -28, -23, -9, 7, -2, -19, -2, 21, 28, 33, 26, 4, 4, 26, 35, 19, 31, 62, 28, -7, 14, 21, -9, 9, 50, 31, 9, 28, 50, 64, 62, 50, 59, 62, 47, 59, 95, 110, 119, 119, 81, 52, 50, 52, 47, 50, 62, 47, 40, 74, 227, 601, 968, 776, 74, -210, 74, 117]"
1714134392725380423,"[-40, 7, 67, 38, 40, 59, 62, 69, 76, 67, 50, 69, 110, 112, 98, 124, 146, 143, 160, 182, 191, 198, 201, 194, 194, 167, 76, -4, -31, -52, -88, -103, -98, -93, -95, -86, -67, -69, -64, -31, -21, -38, -31, -2, 2, -11, -7, 2, -7, -9, -14, -21, 2, 19, 11, 14, 19, 19, 23, 38, 43, 40, 52, 45, 43, 59, 64, 62, 62, 64, 79, 86, 86]"
1714134393286448766,"[83, 71, 67, 76, 86, 88, 76, 57, 55, 83, 107, 88, 69, 76, 83, 88, 93, 88, 64, 14, 0, 43, 57, 40, 52, 55, 19, 38, 266, 687, 973, 661, -26, -184, 103, 91, -45, -2, 16, -23, -9, 19, 23, 21, 21, 35, 52, 55, 45, 33, 43, 71, 95, 110, 129, 158, 184, 189, 194, 201, 167, 127, 115, 71, 14, 4, -4, -40, -47, -26, -7, -14, -43]"
1714134393847486591,"[-50, -31, -7, -2, 4, 21, 14, -2, 14, 43, 43, 16, -9, 4, 35, 31, 7, -9, 0, 11, 7, 4, 19, 40, 43, 38, 43, 55, 55, 38, 33, 31, 26, 33, 28, 31, 52, 50, 50, 67, 55, 45, 62, 59, 52, 69, 86, 79, 74, 98, 105, 103, 115, 98, 59, 69, 86, 62, 47, 57, 50, 47, 26, 62, 400, 860, 881, 280, -249, -117, 67, -69, -95]"
1714134394408554934,"[-16, -43, -67, -31, -19, -28, -31, -33, -40, -33, -14, -7, 11, 62, 83, 83, 107, 139, 170, 196, 203, 194, 162, 136, 127, 88, 23, 9, 9, -16, -28, -28, -23, -2, 7, -2, -2, 2, 26, 57, 45, 35, 52, 50, 40, 52, 59, 64, 76, 83, 83, 79, 76, 67, 45, 40, 43, 52, 79, 83, 62, 76, 98, 83, 79, 81, 69, 64, 88, 81, 33, 35, 57]"
1714134394969623281,"[40, 35, 62, 59, 31, 28, 50, 52, 45, 57, 57, 45, 43, 28, 7, 9, 14, 7, 9, 14, 7, -7, -31, -9, 230, 671, 910, 498, -177, -237, 47, -2, -91, -9, -11, -45, -7, 14, 11, 31, 35, 33, 47, 67, 81, 74, 69, 100, 131, 146, 170, 215, 234, 225, 220, 230, 227, 189, 127, 86, 64, 38, 11, -28, -52, -23, -14, -26, -9, -2, -9, 11, 31]"
1714134395530661106,"[31, 35, 33, 28, 21, 33, 57, 35, 7, 16, 26, 31, 38, 38, 45, 40, 28, 50, 79, 74, 52, 57, 79, 76, 74, 81, 67, 67, 88, 86, 74, 79, 86, 81, 69, 62, 55, 59, 71, 79, 76, 67, 83, 107, 88, 79, 91, 67, 38, 40, 38, 40, 50, 52, 43, -7, -28, 191, 620, 877, 544, -124, -251, 38, 4, -117, -28, -4, -64, -45, -16, -33, -9]"
1714134396091729449,"[40, 31, 16, 45, 59, 64, 93, 115, 112, 136, 174, 167, 167, 210, 208, 194, 203, 153, 95, 83, 40, -16, -9, 7, -21, -21, 4, -14, -31, -7, 2, -9, 2, 23, 19, 21, 43, 40, 31, 45, 62, 57, 52, 55, 71, 76, 57, 45, 33, 23, 38, 40, 31, 45, 59, 52, 45, 62, 64, 38, 40, 67, 55, 40, 55, 55, 55, 62, 64, 64, 64, 67, 76]"
1714134396652797792,"[81, 67, 64, 76, 76, 64, 64, 88, 81, 47, 47, 50, 31, 26, 14, -9, 0, 7, -23, -45, -52, 38, 385, 810, 817, 208, -299, -112, 81, -74, -98, 0, -14, -38, -7, 4, 9, 26, 26, 21, 21, 14, 33, 62, 64, 81, 122, 150, 165, 177, 184, 201, 220, 210, 189, 153, 86, 38, 43, 28, -11, -19, -14, -11, -2, 9, 14, 14, 4, 7, 31, 43, 45]"
1714134397213835617,"[52, 50, 55, 64, 59, 45, 21, 21, 38, 45, 50, 38, 16, 16, 28, 50, 62, 45, 38, 57, 74, 76, 79, 64, 43, 52, 71, 76, 83, 79, 62, 59, 50, 31, 45, 47, 28, 38, 52, 52, 50, 28, 16, 26, 33, 31, 35, 47, 38, 26, 45, 40, 7, 2, 23, 45, 31, 11, 23, 16, -7, 14, 28, 9, 7, 14, 4, 69, 381, 831, 913, 349, -215]"
1714134397774903960,"[-119, 81, -43, -74, 14, -11, -31, 19, 28, -4, -11, 9, 28, 31, 47, 81, 91, 95, 124, 139, 153, 191, 210, 210, 215, 198, 186, 184, 143, 100, 67, 21, -11, -33, -40, -28, -14, -19, -23, -16, -4, 2, 7, 19, 26, 21, 40, 52, 40, 50, 57, 40, 40, 55, 71, 81, 71, 67, 71, 67, 67, 74, 64, 52, 57, 59, 57, 59, 64, 69, 76, 86, 79]"
1714134398335972303,"[40, 28, 55, 52, 31, 33, 19, -2, 28, 57, 43, 33, 40, 23, 2, 11, 11, -23, -59, -50, -23, -33, -38, -16, -26, -47, -26, 11, 35, 43, 11, -9, 2, 11, -2, -2, 31, 50, 28, 14, 98, 390, 802, 913, 388, -196, -98, 143, 9, -45, 55, 40, 7, 33, 43, 45, 57, 52, 50, 71, 95, 105, 112, 124, 143, 155, 165, 201, 239, 261, 263, 258, 261]"
1714134398897010132,"[244, 203, 160, 93, 33, 19, 7, -9, -4, -7, -33, -57, -40, -19, -38, -62, -55, -35, -4, 19, 19, 4, 2, 14, 26, 38, 40, 33, 35, 50, 50, 57, 71, 45, 28, 62, 71, 52, 43, 45, 43, 38, 43, 59, 52, 33, 23, 19, 2, -9, -14, -21, -16, 11, 26, 7, -7, 2, 7, 7, 21, 31, 23, 23, 33, 40, 38, 45, 59, 67, 74, 83, 91]"
1714134399458078475,"[67, 26, 26, 31, 9, 4, 9, -2, -23, -7, 184, 587, 908, 663, -21, -261, 26, 55, -93, -33, 7, -31, 9, 40, 14, 33, 64, 57, 57, 71, 71, 88, 141, 155, 136, 172, 222, 210, 196, 227, 249, 232, 208, 206, 194, 131, 71, 43, 19, 7, 0, -7, 11, 21, 2, 2, 21, 31, 45, 52, 38, 35, 47, 55, 62, 57, 50, 55, 57, 9, -33, -7, 14]"
1714134400019146818,"[-9, -11, 9, 14, 7, 7, 14, 4, -14, -23, -38, -45, -28, -40, -57, -40, -23, -11, -9, -19, -28, -19, 2, 9, 0, 0, 16, 28, 14, 9, 35, 35, 21, 26, 28, 40, 55, 62, 76, 91, 86, 71, 67, 59, 57, 55, 64, 79, 74, 59, 50, 107, 395, 834, 970, 476, -129, -98, 150, 40, -50, 33, 9, -52, -11, 21, 14, 31, 40, 35, 50, 74, 88]"
1714134400580184643,"[95, 112, 139, 153, 160, 191, 222, 220, 210, 220, 227, 213, 177, 136, 88, 43, 23, 19, -9, -35, -28, -16, -14, -7, 4, 14, 14, 14, 19, 28, 33, 31, 40, 47, 35, 14, 23, 50, 38, 28, 64, 69, 31, 28, 43, 28, 21, 14, -7, -9, -4, -11, -4, 16, 4, -33, -57, -47, -21, -23, -38, -23, -4, -9, -14, -2, 11, 14, 16, 31, 33, 14, 26]"
1714134401141252986,"[57, 55, 47, 57, 45, 35, 64, 98, 115, 98, 64, 45, 47, 50, 55, 64, 50, 19, 16, 26, 122, 445, 860, 898, 318, -210, -55, 148, -4, -35, 64, 38, 9, 52, 67, 52, 55, 83, 110, 105, 95, 105, 115, 117, 127, 150, 174, 189, 189, 182, 206, 227, 208, 182, 167, 136, 76, 26, 9, -11, -21, 0, 2, -16, -14, 2, 0, 4, 23, 33, 26, 26, 47]"
1714134401702321329,"[55, 33, 23, 43, 59, 57, 43, 14, -2, 14, 23, 19, 28, 31, 23, 21, 28, 28, 16, -2, -7, 2, -4, -14, -2, 7, 4, 2, 9, 14, 11, 9, 9, 9, -7, -14, 21, 40, 16, 9, 0, -19, -16, -7, 0, 0, 2, 31, 38, 33, 64, 93, 76, 50, 35, 40, 47, 40, 50, 59, 55, 55, 50, 62, 266, 695, 965, 647, -19, -191, 86, 81, -62]"
1714134402263359158,"[7, 67, 26, 28, 47, 23, 23, 52, 52, 55, 81, 91, 93, 117, 141, 146, 167, 206, 218, 230, 258, 263, 237, 230, 222, 170, 88, 43, 33, 19, 2, 2, -21, -67, -71, -40, -26, -31, -16, -2, -7, -4, 14, 21, 16, 28, 38, 38, 43, 55, 52, 43, 45, 45, 43, 43, 38, 23, 11, 11, 14, 35, 55, 21, -11, 7, 14, -4, 0, -4, -16, -4, 9]"
1714134402824427501,"[4, -2, 0, 11, 9, 9, 45, 35, -26, -23, 23, 21, 9, 19, 33, 50, 47, 33, 31, 16, -2, 4, 31, 43, 33, 16, -11, -19, 64, 357, 778, 915, 417, -189, -139, 117, 11, -69, 21, 23, -2, 26, 21, 19, 71, 93, 67, 69, 76, 71, 83, 91, 105, 150, 179, 194, 210, 220, 244, 278, 268, 232, 196, 146, 93, 62, 28, 0, 7, 21, 11, 11, 11]"
1714134403385495844,"[2, 11, 19, 23, 40, 38, 14, 4, 19, 28, 26, 21, 14, 2, 16, 43, 33, 9, -9, -16, -2, 4, -11, -9, 11, 2, -7, 23, 35, 16, 16, 23, 11, 2, -4, -14, -16, -11, -16, -38, -35, -16, -16, -21, -16, -7, 0, 0, -2, 11, 26, 23, 16, 23, 52, 76, 79, 81, 71, 45, 38, 52, 47, 45, 67, 69, 67, 62, 57, 201, 577, 922, 774]"
1714134403946533669,"[131, -210, 14, 105, -28, -14, 40, 11, -7, 2, -7, -26, -7, 21, 19, 28, 59, 69, 69, 91, 107, 122, 155, 196, 218, 220, 237, 239, 225, 213, 167, 79, 26, 21, 2, -28, -23, -11, -33, -40, -4, 16, 4, -2, 7, 19, 28, 23, 35, 47, 40, 55, 76, 76, 67, 62, 57, 69, 81, 57, 55, 86, 83, 55, 40, 40, 33, 26, 28, 43, 47, 40, 35]"
1714134404507602012,"[40, 35, 28, 7, -43, -76, -76, -67, -55, -47, -47, -47, -28, 7, 23, 26, 4, -26, -21, -2, 0, -11, -31, -14, 16, 4, 52, 337, 726, 850, 433, -162, -184, 103, 28, -81, 28, 59, 9, 38, 71, 59, 59, 81, 107, 115, 105, 112, 141, 165, 172, 196, 230, 232, 237, 282, 311, 289, 263, 249, 215, 160, 103, 64, 28, -2, -4, 7, 0, -31, -55, -47, -35]"
1714134405068639837,"[-35, -7, 26, 2, -9, 11, 19, 31, 21, -14, 0, 35, 19, -7, -4, 7, 9, 11, 19, 28, 31, 47, 55, 38, 45, 64, 50, 50, 71, 74, 76, 71, 59, 62, 81, 103, 105, 71, 40, 40, 47, 52, 62, 62, 28, -21, -38, 93, 476, 915, 920, 254, -318, -124, 107, -64, -105, 7, -7, -28, 11, 7, -21, -26, -7, 16, 23, 31, 47, 62, 74, 98, 136]"
1714134405629708184,"[160, 177, 208, 222, 213, 215, 196, 155, 117, 59, -4, -28, -23, -35, -59, -64, -40, -28, -40, -31, -2, -4, -16, 7, 16, 16, 33, 31, 31, 55, 45, 38, 67, 67, 50, 62, 67, 57, 59, 64, 62, 69, 69, 71, 100, 100, 71, 64, 86, 86, 79, 91, 93, 74, 67, 71, 62, 50, 59, 74, 83, 93, 88, 79, 59, 43, 59, 67, 47, 52, 55, 40, 26]"
1714134406190756183,"[55, 289, 776, 1119, 745, -64, -230, 98, 28, -136, -38, -11, -64, -38, -33, -47, -31, -21, -7, 4, -14, -4, 35, 50, 62, 81, 98, 100, 110, 174, 227, 210, 196, 198, 170, 119, 67, 9, -28, -33, -31, -47, -33, 9, -9, -33, -2, 4, -28, -38, -28, -31, -23, 7, 16, 9, 19, 33, 21, 11, 33, 38, 19, 26, 40, 47, 57, 64, 57, 50, 71, 95, 88]"
1714134406751814352,"[67, 69, 79, 69, 88, 117, 91, 59, 81, 107, 105, 86, 55, 47, 76, 81, 62, 64, 74, 57, 52, 74, 86, 74, 67, 83, 95, 83, 76, 95, 95, 83, 93, 100, 98, 93, 93, 115, 143, 143, 98, 33, 7, 21, 40, 40, 33, 38, 33, -2, -19, 143, 563, 989, 884, 124, -347, -93, 40, -129, -117, -35, -59, -74, -43, -16, -19, -16, 2, 11, 11, 28, 57]"
1714134407312882695,"[67, 74, 100, 129, 153, 179, 198, 208, 201, 179, 165, 162, 139, 83, 33, 7, -19, -40, -33, -21, -31, -43, -35, 2, 14, -2, 2, 16, 14, 16, 28, 26, 9, 7, 31, 31, 16, 35, 40, 26, 33, 31, 9, 16, 38, 40, 50, 71, 62, 45, 59, 67, 59, 71, 76, 74, 71, 74, 88, 88, 79, 71, 67, 76, 91, 86, 93, 100, 79, 76, 98, 100, 81]"
1714134407873951038,"[69, 62, 64, 76, 83, 100, 119, 86, 43, 31, 14, 11, 33, 31, 21, 33, 14, -9, 119, 476, 901, 941, 287, -306, -134, 55, -143, -162, -57, -95, -112, -64, -71, -88, -64, -43, -35, -28, -11, 16, 35, 33, 47, 93, 129, 141, 172, 206, 208, 208, 215, 203, 167, 112, 57, 23, 11, 9, -2, -31, -31, -4, 7, -2, -19, -38, -35, -4, 28, 31, 14, 2, 14]"
1714134408434988863,"[35, 50, 59, 45, 7, 0, 28, 43, 47, 52, 40, 38, 47, 45, 55, 64, 64, 79, 67, 21, 14, 38, 26, 4, 11, 26, 26, 14, 11, 43, 71, 62, 69, 95, 69, 23, 55, 100, 67, 19, 28, 52, 47, 14, 28, 244, 695, 1049, 769, -9, -287, 16, 47, -134, -95, -28, -69, -91, -67, -38, -28, -26, -7, 7, 7, 14, 31, 43, 57, 100, 141, 148, 160]"
1714134408996057210,"[189, 206, 210, 222, 218, 182, 127, 64, 4, -33, -52, -62, -74, -86, -98, -103, -81, -62, -57, -43, -38, -45, -35, -19, -16, -7, 19, 31, 14, 7, 33, 59, 47, 26, 45, 74, 57, 43, 59, 57, 43, 71, 93, 69, 67, 91, 83, 81, 98, 83, 43, 28, 55, 59, 38, 47, 62, 50, 55, 47, 35, 256, 764, 1071, 639, -112, -213, 81, 35, -74, -2, -4, -55]"
1714134409557095035,"[-33, -21, -38, -23, -11, -43, -43, -14, -23, -11, 31, 52, 69, 93, 112, 127, 131, 139, 153, 158, 155, 129, 62, 0, -21, -33, -45, -45, -50, -57, -45, -28, -16, -11, -16, -4, 19, 9, -14, -4, 14, 19, 23, 35, 35, 28, 28, 35, 45, 59, 64, 40, 43, 74, 71, 57, 57, 67, 76, 86, 93, 83, 74, 98, 129, 124, 100, 91, 71, 31, 11, 7, -2]"
1714134410118163378,"[21, 45, 11, -19, 57, 376, 855, 985, 390, -239, -127, 115, -33, -105, -14, -19, -43, -2, 19, 0, -2, 16, 31, 45, 50, 33, 35, 50, 47, 50, 91, 115, 119, 155, 182, 179, 170, 143, 103, 64, 31, 2, -23, -50, -59, -40, -21, -11, -14, -23, -14, 4, 0, 4, 26, 35, 33, 31, 35, 47, 43, 33, 43, 23, -2, 9, 11, -2, 26, 64, 52, 38, 47]"
1714134410679201203,"[50, 50, 57, 64, 79, 71, 55, 76, 112, 119, 100, 55, 26, 40, 50, 52, 50, 43, 47, 35, 0, 62, 390, 860, 999, 440, -206, -117, 153, 7, -76, 52, 67, 7, 26, 57, 52, 62, 83, 86, 93, 103, 103, 110, 129, 155, 186, 206, 215, 234, 249, 258, 263, 244, 206, 160, 91, 26, 7, -2, -23, -23, -21, -31, -26, -23, -23, -14, -9, -16, -16, 2, 16]"
1714134411240269546,"[2, -4, 9, 4, -16, -28, -23, -14, -38, -62, -45, -26, -38, -52, -33, -2, -4, -11, -2, 2, 2, 2, 4, 23, 43, 40, 50, 81, 93, 67, 45, 38, 28, 40, 57, 52, 50, 59, 57, 45, 83, 340, 788, 994, 541, -117, -139, 119, 31, -69, 11, 31, -2, 16, 35, 31, 43, 62, 69, 64, 69, 107, 134, 131, 148, 170, 179, 206, 232, 242, 251, 251, 227]"
1714134411801337889,"[201, 167, 124, 91, 38, -14, -35, -38, -21, -11, -31, -26, 0, -7, -11, 11, 28, 21, 16, 47, 69, 47, 26, 35, 52, 52, 52, 62, 64, 62, 62, 52, 43, 33, 9, 4, 28, 40, 43, 50, 33, -2, -31, -45, -43, -50, -62, -47, -9, 9, 4, -19, -38, -16, -4, -23, -7, 19, 2, -16, -14, 11, 218, 661, 961, 613, -95, -239, 64, 38, -110, -38, 16]"
1714134412362375718,"[-7, -2, 7, 9, 31, 43, 57, 86, 67, 38, 64, 103, 122, 139, 141, 146, 189, 230, 237, 230, 222, 213, 184, 153, 112, 43, -7, -11, -16, -7, 14, 11, -4, -7, -4, -23, -38, -4, 14, -11, -7, 23, 31, 31, 28, 26, 38, 50, 43, 38, 67, 71, 55, 79, 81, 52, 47, 50, 28, 26, 45, 43, 21, 26, 47, 50, 31, 33, 43, 31, 43, 59, 40]"
1714134412923444061,"[14, 0, -14, -21, 0, 23, 16, 9, 14, -4, -2, 122, 450, 846, 807, 148, -304, -91, 55, -93, -93, -2, -4, -16, -2, 2, 11, 21, -2, -14, 11, 33, 45, 62, 91, 107, 129, 158, 177, 191, 203, 210, 218, 222, 189, 139, 112, 67, 21, 14, -7, -28, -7, -7, -21, 9, 23, 2, 19, 43, 35, 35, 38, 33, 47, 59, 55, 67, 76, 64, 64, 83, 88]"
1714134413484481886,"[76, 55, 33, 45, 64, 55, 40, 43, 26, 0, -4, -7, -9, -19, -40, -45, -14, -11, -35, -19, 7, -11, -16, 26, 28, -26, -43, -21, -4, 4, 2, -4, 2, -2, -9, 141, 529, 898, 795, 131, -275, -28, 107, -55, -59, 23, 28, 19, 33, 52, 55, 50, 74, 83, 83, 103, 105, 105, 148, 182, 182, 194, 213, 220, 239, 266, 258, 230, 213, 184, 124, 67, 43]"
1714134414045550229,"[19, 7, 9, 14, 14, -4, -26, -19, -4, 0, 9, 14, -16, -35, -9, 11, 9, -4, -26, -16, 4, 2, 0, -4, -9, 4, 2, -4, 11, -2, -57, -67, -19, 14, 0, -28, -23, 4, 21, 21, 23, 26, 11, 11, 40, 59, 71, 76, 57, 50, 55, 50, 62, 67, 47, 57, 76, 71, 57, 124, 412, 807, 853, 311, -194, -69, 131, 9, -23, 69, 52, 7, 43]"
1714134414606588054,"[76, 55, 57, 98, 79, 33, 45, 86, 76, 59, 88, 124, 143, 167, 184, 182, 194, 203, 196, 191, 174, 112, 50, 26, 16, -2, -16, -19, -23, -14, 4, 11, 16, 21, 9, 4, 4, -2, 4, 19, 11, 16, 43, 52, 35, 7, -4, -4, -11, -4, 7, 0, -11, -16, -14, -19, -21, -11, -9, -2, 33, 47, 31, 38, 21, 2, 14, 11, 2, 11, 0, -23, -11]"
1714134415167656397,"[-14, 69, 405, 790, 778, 210, -301, -155, 83, -38, -88, 9, -14, -52, 4, 28, 7, 31, 62, 62, 67, 93, 110, 112, 119, 150, 194, 203, 201, 234, 263, 258, 261, 263, 222, 158, 107, 76, 55, 28, -4, -16, -4, 0, -2, 0, 7, 14, 9, 11, 19, 26, 33, 23, 7, 19, 47, 43, 28, 50, 55, 45, 55, 33, -26, -40, -21, -28, -28, -7, 2, 23, 40]"
1714134415728694226,"[11, -16, -14, -21, -31, -26, -31, -26, 14, 9, -43, 45, 414, 874, 925, 280, -306, -119, 105, -64, -81, 35, -4, -26, 35, 38, 19, 35, 55, 67, 79, 93, 103, 107, 122, 129, 127, 172, 232, 220, 215, 256, 249, 218, 186, 131, 83, 50, 26, 23, 4, -14, -4, -2, 0, 14, 4, -28, -26, 0, 7, 11, 4, 9, 28, 31, 38, 47, 28, 19, 28, 28, 33]"
1714134416289762569,"[45, 43, 21, 14, 45, 64, 35, 16, 38, 50, 40, 35, 28, -7, -23, -2, 16, 26, 16, -14, -31, -19, 4, 11, 2, -2, -7, -23, -43, 33, 390, 913, 1042, 402, -254, -129, 98, -64, -93, 33, 14, -21, 4, 9, 19, 47, 52, 47, 52, 47, 40, 52, 71, 105, 134, 146, 158, 182, 196, 179, 182, 201, 167, 122, 93, 52, 14, 0, -7, -16, -21, -11, -9]"
1714134416850815655,"[-7, 16, 40, 35, 21, 26, 38, 35, 38, 35, 23, 23, 33, 35, 50, 50, 40, 45, 38, 14, 23, 50, 55, 45, 40, 38, 38, 28, 45, 83, 59, 26, 57, 71, 28, 16, 35, 14, -11, 9, 33, -2, -47, -23, 2, -11, -9, 14, 33, 28, 0, -11, -2, 7, 4, -4, 2, 23, 35, 28, 14, 31, 227, 692, 1102, 838, 16, -261, 67, 79, -93, -11, 64]"
1714134417411868737,"[11, 0, 35, 43, 47, 57, 40, 33, 52, 45, 40, 76, 98, 95, 117, 158, 189, 208, 208, 198, 210, 218, 191, 150, 91, 38, 19, 9, 9, 26, 19, -2, 14, 19, -7, -9, -2, -7, 0, 2, -9, -14, -16, -14, 4, 31, 47, 43, 14, 7, 21, 16, 14, 33, 26, 21, 40, 43, 43, 31, 2, 0, 11, 11, 9, 9, 0, 4, 21, 21, 19, 14, -9]"
1714134417972937080,"[-23, -2, 23, 35, 26, 16, 21, 26, 28, 33, 23, -2, 11, 55, 55, 38, 40, 38, 40, 50, 57, 55, 45, 45, 57, 64, 71, 43, 4, 45, 93, 74, 43, 28, 16, 11, 19, 45, 64, 40, 26, 43, 26, 86, 433, 927, 1049, 476, -165, -95, 155, 19, -62, 40, 43, 2, 40, 69, 50, 43, 67, 81, 83, 91, 86, 81, 105, 146, 165, 165, 179, 198, 201]"
1714134418533974905,"[206, 218, 210, 191, 167, 136, 74, 11, 9, 7, -40, -52, -52, -91, -91, -71, -79, -81, -67, -79, -98, -86, -81, -103, -100, -71, -50, -52, -57, -23, -4, -23, -21, -14, -7, 19, 14, 0, 16, 35, 38, 40, 47, 47, 45, 47, 52, 55, 43, 38, 59, 76, 67, 67, 71, 62, 55, 59, 59, 59, 59, 57, 59, 74, 74, 81, 98, 88, 81, 91, 95, 91, 81]"
1714134419095043252,"[86, 93, 71, 59, 79, 71, 47, 67, 91, 93, 91, 91, 71, 14, -43, -47, -16, -7, -9, 4, 4, -23, -7, 213, 654, 973, 666, -76, -294, 9, 11, -141, -76, -31, -62, -43, -16, -21, -16, 2, 7, 11, 50, 64, 40, 50, 79, 86, 107, 150, 165, 167, 184, 206, 225, 222, 179, 122, 100, 83, 38, 14, 9, -21, -38, -11, 11, 9, -4, -19, 9, 45, 28]"
1714134419656111595,"[21, 43, 31, 21, 38, 33, 14, 9, 9, 14, 19, 21, 43, 45, 9, 14, 33, 19, 35, 59, 28, 9, 40, 69, 57, 23, 19, 35, 40, 35, 43, 40, 28, 31, 38, 28, 9, 4, 2, -11, -11, 9, 9, 0, 11, 16, 2, 19, 45, 26, 9, 43, 71, 67, 64, 64, 45, 31, 35, 40, 43, 43, 50, 57, 43, 110, 412, 812, 913, 426, -201, -213, 47]"
1714134420217149420,"[-38, -119, -9, 21, -16, 2, 23, 14, 21, 50, 50, 21, 31, 64, 83, 98, 107, 119, 146, 172, 206, 232, 237, 237, 239, 227, 194, 143, 71, 31, 19, -9, -21, -9, -23, -31, -14, -9, -7, 9, 9, 2, 7, 4, 16, 31, 14, 16, 38, 35, 26, 45, 43, 16, 23, 23, -4, -2, 7, 9, 0, -23, -38, -52, -47, -23, -21, -28, -21, -21, -16, 4, 14]"
1714134420778217763,"[0, 11, 35, 26, 23, 40, 38, 26, 26, 43, 64, 64, 38, 21, 19, 21, 43, 64, 45, 26, 23, 14, 69, 361, 805, 973, 498, -165, -165, 131, 55, -38, 45, 47, 16, 52, 71, 45, 57, 95, 98, 91, 115, 124, 103, 117, 167, 189, 186, 206, 230, 242, 251, 258, 258, 230, 165, 100, 52, 19, -7, -23, -28, -33, -28, -4, -9, -31, -16, 0, -4, 9, 19]"
1714134421339286106,"[0, 4, 28, 19, 14, 11, -7, -9, 11, 19, 0, -33, -47, -33, -33, -40, -21, -14, -23, -9, -4, -16, -11, -2, -4, 2, 14, 33, 47, 23, 9, 33, 47, 52, 47, 33, 33, 43, 50, 76, 103, 95, 83, 71, 52, 45, 47, 14, -11, 7, 19, 23, 31, 11, 107, 472, 925, 980, 364, -227, -100, 131, 4, -45, 47, 40, 2, 31, 57, 52, 55, 69, 79]"
1714134421900323931,"[83, 86, 86, 86, 93, 112, 148, 179, 174, 167, 206, 232, 227, 227, 218, 165, 107, 79, 45, 19, 23, 7, -26, -16, -2, 0, 11, 14, 11, 28, 28, 19, 28, 14, -14, 14, 43, 33, 43, 45, 0, -16, 11, 16, 11, 19, 23, 35, 35, 35, 57, 64, 57, 59, 69, 69, 57, 40, 31, 40, 47, 38, 55, 76, 62, 40, 26, 9, 2, -4, -2, 35, 57]"
1714134422461392278,"[19, -7, 7, 2, -9, -7, -19, -31, -14, -9, -23, 31, 323, 798, 973, 455, -194, -160, 98, -4, -86, 0, 14, -7, 0, 4, 19, 35, 31, 35, 64, 79, 67, 45, 43, 81, 122, 136, 139, 158, 201, 215, 218, 237, 234, 189, 127, 76, 55, 40, 9, -19, -11, -2, 0, 9, 2, -9, 2, 4, -7, 16, 43, 28, 16, 38, 64, 67, 47, 40, 62, 76, 69]"
1714134423022460621,"[71, 83, 76, 67, 79, 83, 79, 81, 69, 47, 47, 57, 71, 86, 74, 47, 40, 57, 59, 55, 57, 52, 52, 67, 62, 47, 55, 50, 31, 40, 64, 64, 69, 81, 86, 83, 62, 14, -7, 23, 57, 55, 43, 47, 33, 7, 134, 503, 872, 781, 119, -330, -100, 55, -103, -100, -28, -57, -45, -2, 4, -7, -14, 4, 31, 45, 47, 52, 62, 81, 107, 129, 158]"
1714134423583498446,"[189, 186, 196, 234, 239, 222, 198, 143, 79, 45, 38, 11, -55, -88, -59, -38, -43, -47, -50, -64, -67, -50, -43, -50, -45, -19, 0, -2, 0, 9, 14, 21, 35, 43, 43, 47, 47, 38, 40, 40, 33, 40, 45, 38, 35, 50, 59, 50, 47, 71, 69, 52, 79, 112, 112, 98, 81, 64, 64, 69, 64, 69, 74, 69, 74, 67, 47, 172, 544, 917, 846, 222, -249]"
1714134424144566789,"[-50, 139, -7, -28, 50, 19, -7, 23, 38, 23, 16, 16, 2, -7, 9, 11, 2, 14, 33, 43, 64, 98, 131, 155, 172, 174, 162, 141, 93, 16, -43, -67, -83, -105, -100, -91, -95, -83, -59, -47, -45, -47, -33, -19, -23, -19, 0, 7, 11, 31, 43, 23, 28, 62, 64, 52, 52, 59, 69, 69, 64, 62, 52, 52, 64, 62, 55, 67, 79, 79, 74, 76, 100]"
1714134424705604614,"[105, 81, 76, 98, 86, 40, 19, 40, 57, 47, 52, 57, 35, 28, 55, 55, 38, 47, 55, 33, 50, 251, 678, 1008, 738, 0, -246, 64, 93, -69, -14, 52, 16, 14, 62, 59, 28, 47, 74, 67, 64, 74, 83, 95, 112, 127, 134, 139, 139, 158, 213, 215, 165, 158, 158, 93, 31, 2, -35, -67, -59, -55, -59, -50, -47, -38, -9, -11, -19, -9, -31, -71, -52]"
1714134425266672957,"[-7, -2, -7, 9, 9, 9, 28, 35, 35, 23, 0, 4, 19, 19, 21, 16, 2, 21, 57, 57, 38, 40, 45, 50, 74, 86, 69, 57, 64, 69, 74, 81, 91, 79, 64, 83, 107, 103, 95, 103, 115, 110, 98, 93, 86, 93, 117, 127, 95, 69, 88, 98, 74, 74, 91, 93, 88, 69, 71, 242, 673, 1076, 901, 148, -244, 23, 110, -69, -50, 14, -14, -4, 16]"
1714134425827741304,"[11, 26, 28, -4, -16, 23, 21, -21, -16, 14, 38, 64, 79, 98, 127, 143, 155, 170, 165, 139, 110, 71, 33, 9, -19, -38, -50, -52, -28, -19, -31, -21, -7, -9, -2, -7, -23, 0, 16, -4, 4, 28, 11, 11, 47, 50, 52, 64, 50, 45, 62, 62, 57, 71, 74, 47, 23, 35, 52, 45, 40, 50, 62, 64, 59, 59, 57, 52, 45, 45, 50, 55, 47]"
1714134426388809647,"[50, 79, 95, 76, 69, 71, 74, 81, 79, 67, 57, 52, 57, 55, 62, 76, 71, 74, 100, 110, 100, 100, 95, 81, 69, 45, 16, 16, 38, 40, 38, 23, 55, 306, 740, 980, 601, -124, -273, 38, 7, -129, -38, -4, -64, -43, 0, -16, -38, -35, -28, -21, -7, 11, 31, 59, 69, 64, 81, 105, 131, 167, 177, 167, 194, 206, 165, 122, 81, 21, -7, -9, -19]"
1714134426949847472,"[-28, -28, -23, -28, -19, 4, -7, -35, -23, 2, -2, -9, 2, 9, 14, 26, 38, 26, -2, 7, 45, 40, 16, 40, 57, 35, 38, 55, 47, 59, 83, 59, 45, 69, 74, 67, 71, 64, 62, 81, 69, 35, 33, 45, 35, 33, 64, 74, 50, 33, 47, 83, 98, 79, 50, 43, 57, 59, 57, 55, 33, 26, 31, 26, 124, 462, 862, 874, 294, -239, -103, 110, -52]"
1714134427510915815,"[-117, -9, -14, -55, -11, 11, -4, 4, 16, 11, 2, -9, -9, 4, 45, 81, 79, 98, 148, 170, 179, 210, 225, 203, 182, 158, 107, 52, 7, -21, -31, -28, -21, -26, -62, -83, -45, -14, -31, -28, -14, -23, -26, -16, -4, 23, 43, 19, 9, 31, 40, 57, 71, 55, 50, 74, 76, 64, 76, 76, 57, 69, 91, 91, 88, 88, 93, 98, 98, 93, 95, 93, 67]"
1714134428071984158,"[67, 83, 55, 38, 86, 110, 76, 43, 26, 21, 33, 38, 38, 40, 43, 55, 79, 71, 47, 38, 23, 9, -2, -4, 11, 14, -16, -40, -45, -40, 93, 469, 905, 896, 225, -297, -95, 71, -95, -98, -4, -31, -43, 0, 11, 11, 28, 47, 55, 57, 59, 71, 95, 122, 131, 143, 170, 201, 222, 234, 244, 254, 263, 246, 184, 122, 79, 50, 26, 14, 19, 11, -14]"
1714134428633021983,"[-7, 16, 26, 21, 4, -16, -11, 11, 31, 45, 35, 23, 38, 55, 55, 57, 50, 38, 43, 35, 35, 50, 31, 9, 23, 40, 52, 57, 47, 45, 43, 62, 100, 74, 28, 43, 62, 57, 67, 67, 45, 38, 52, 74, 74, 47, 23, 11, 11, 31, 43, 31, 21, 26, 23, 9, 21, 38, 28, 26, 38, 38, 43, 45, 35, 62, 98, 93, 69, 50, 57, 69, 55]"
1714134429194090330,"[67, 91, 74, 64, 62, 47, 155, 505, 927, 973, 359, -251, -136, 95, -45, -107, -7, 0, -33, -7, 16, 9, 19, 47, 55, 59, 91, 88, 67, 100, 158, 167, 167, 194, 215, 237, 261, 268, 261, 254, 227, 179, 136, 91, 50, 31, 9, -11, -7, 16, 14, 2, 2, 9, 23, 38, 31, 21, 45, 67, 57, 55, 59, 59, 74, 83, 79, 74, 76, 79, 86, 83, 67]"
1714134429755158673,"[62, 67, 64, 62, 35, -4, -4, 11, 0, -7, -4, -26, -64, -69, -52, -33, -19, -26, -40, -23, -9, -11, -9, -4, -2, 14, 28, 19, 9, 26, 45, 43, 35, 50, 67, 59, 57, 74, 81, 59, 35, 50, 67, 43, 33, 59, 62, 52, 52, 45, 162, 541, 956, 915, 275, -206, -11, 150, -9, -23, 67, 43, 23, 55, 55, 57, 83, 88, 67, 50, 55, 59, 59]"
1714134430316227017,"[76, 105, 129, 148, 165, 191, 218, 222, 218, 206, 191, 177, 127, 71, 45, 7, -35, -33, -2, -2, -23, -28, -16, 0, 11, 0, -4, 2, 4, -4, 0, 19, 19, 19, 38, 43, 33, 35, 45, 59, 67, 64, 59, 47, 52, 67, 59, 35, 26, 43, 57, 50, 40, 45, 43, 35, 33, 23, 19, 16, -9, -33, -43, -64, -69, -50, -35, -21, -21, -14, 16, 35, 16]"
1714134430877264841,"[-7, -11, 0, 9, 9, 19, 33, 23, 14, 28, 62, 232, 599, 879, 647, 4, -246, 16, 67, -83, -52, 9, -4, -4, 14, 19, 31, 62, 76, 74, 76, 83, 95, 115, 131, 136, 155, 201, 232, 249, 278, 289, 273, 268, 246, 194, 139, 86, 35, 19, 7, -21, -31, -19, -23, -45, -64, -64, -45, -31, -26, -28, -14, 16, 21, 11, 14, 26, 43, 52, 43, 40, 57]"
1714134431438302666,"[69, 67, 64, 64, 57, 52, 57, 47, 38, 35, 7, -19, 7, 31, 9, -2, 4, -9, -16, 16, 43, 31, 4, -4, 9, 11, -2, 2, 11, 9, 23, 35, 11, 100, 474, 925, 961, 340, -261, -115, 131, -11, -59, 23, 7, -9, 21, 9, -19, -7, 28, 43, 35, 52, 83, 93, 98, 127, 148, 155, 186, 239, 273, 275, 273, 273, 246, 191, 136, 103, 71, 26, 4]"
1714134431999371009,"[9, 0, -21, -16, -7, -11, -21, -35, -21, 9, 4, -4, 19, 28, 26, 35, 43, 35, 31, 43, 67, 76, 64, 55, 55, 67, 81, 79, 83, 95, 88, 86, 86, 74, 59, 59, 59, 71, 83, 74, 52, 35, 31, 40, 31, 19, 31, 50, 69, 81, 67, 38, 28, 31, 31, 28, 14, 9, 21, -2, -31, 95, 486, 963, 1008, 325, -287, -110, 105, -71, -103, 11, -16]"
1714134432560408838,"[-38, 23, 21, -28, -16, 23, 40, 47, 47, 45, 62, 95, 112, 129, 153, 179, 208, 227, 254, 285, 275, 227, 186, 155, 103, 35, -2, -14, -4, 9, -2, -7, 0, -21, -33, -16, 0, 16, 16, -9, 4, 47, 50, 33, 45, 57, 52, 55, 57, 64, 83, 74, 62, 81, 88, 79, 79, 69, 67, 83, 86, 71, 71, 91, 98, 86, 88, 93, 83, 74, 83, 103, 103]"
1714134433121477181,"[91, 88, 83, 86, 103, 103, 83, 76, 91, 103, 100, 91, 74, 52, 55, 64, 43, 35, 57, 55, 40, 31, 31, 59, 71, 21, 4, 47, 35, -16, -14, -7, -28, -28, -14, -9, -33, -52, 115, 575, 1037, 908, 127, -311, -38, 76, -100, -86, -16, -55, -57, -23, -14, 4, 16, 2, 11, 45, 52, 64, 88, 91, 105, 131, 143, 153, 182, 230, 256, 242, 227, 237, 222]"
1714134433682530267,"[167, 100, 64, 47, 23, 2, -9, -23, -19, -16, -40, -47, -21, 2, -2, -14, -2, 9, -21, -38, -4, 7, -7, -7, -2, 21, 38, 21, 23, 40, 40, 43, 35, 33, 69, 81, 55, 50, 47, 43, 64, 74, 57, 47, 57, 74, 79, 71, 69, 69, 57, 52, 81, 103, 91, 79, 79, 71, 62, 74, 100, 100, 76, 67, 67, 67, 57, 45, 55, 74, 59, 43, 52]"
1714134434243583349,"[45, 21, 16, 26, 31, 26, 11, -26, -50, -19, 4, -28, -69, -67, -50, -47, -33, 139, 556, 953, 783, 38, -321, -26, 67, -103, -76, 0, -19, -31, -26, -26, -7, 11, 19, 14, 19, 62, 100, 93, 93, 107, 119, 153, 186, 203, 227, 251, 237, 208, 227, 256, 198, 105, 55, 35, 23, 16, 11, 4, -9, -19, -11, 2, 2, 7, 23, 21, 14, 28, 47, 47, 33]"
1714134434804651692,"[31, 45, 50, 52, 43, 26, 31, 52, 47, 23, 2, -2, 7, 14, 33, 33, 7, 9, 47, 67, 40, 11, 7, 4, 4, 16, 19, 7, -2, 11, 28, 33, 35, 28, 9, -2, -4, -11, -7, -4, -28, -57, -79, -81, -83, -103, -103, -64, -23, -16, -28, -47, -74, -76, -57, -57, -55, -19, -2, -21, -31, 100, 460, 841, 846, 268, -270, -107, 127, -31, -83, 4, -26]"
1714134435365720039,"[-57, -16, 14, 19, 23, 23, 38, 47, 35, 43, 74, 83, 79, 98, 129, 150, 162, 196, 225, 239, 246, 225, 198, 182, 119, 43, 21, 16, -14, -23, -21, -28, -16, 9, 14, 4, 9, 19, 26, 31, 33, 40, 45, 40, 38, 40, 31, 11, 11, 21, 28, 43, 47, 45, 47, 52, 38, 21, 14, 2, -4, 2, 7, 9, -2, -19, -21, -19, -7, 11, 26, 38, 28]"
1714134435926757864,"[4, 2, 7, -16, -40, -45, -31, 7, 19, -14, 62, 421, 869, 905, 301, -280, -134, 129, -9, -64, 50, 35, -2, 43, 62, 52, 64, 71, 69, 93, 117, 117, 129, 155, 162, 160, 184, 225, 246, 256, 261, 275, 294, 263, 213, 177, 119, 57, 31, 16, -4, -19, -7, 14, 7, -4, 2, -14, -33, -9, 9, 2, 4, 11, 11, 21, 33, 21, 9, 28, 43, 31, 31]"
1714134436487826207,"[64, 67, 19, 11, 55, 62, 47, 52, 40, 31, 43, 50, 40, 7, -35, -26, 19, 9, -14, 11, 33, 28, 23, 21, 19, 9, -16, -16, 23, 31, 14, 26, 16, 35, 292, 757, 1037, 675, -81, -251, 91, 81, -74, 7, 47, -4, 23, 69, 55, 28, 19, 40, 74, 91, 88, 71, 79, 112, 124, 129, 170, 206, 208, 213, 237, 268, 266, 215, 150, 107, 81, 47, 19]"
1714134437048864032,"[-7, -33, -28, -2, 4, 4, 16, 2, 0, 33, 21, -21, -16, 4, 2, 11, 31, 19, 2, 14, 35, 52, 50, 38, 45, 55, 52, 50, 52, 59, 57, 52, 59, 74, 91, 95, 83, 74, 83, 86, 86, 83, 62, 45, 83, 93, 40, 35, 57, 31, 7, 11, 11, 19, 21, -11, 55, 400, 869, 1032, 510, -218, -225, 74, -43, -155, -43, -23, -76, -40, -4, -21, -14]"
1714134437609932375,"[7, 11, 23, 33, 33, 55, 81, 81, 91, 127, 148, 165, 186, 191, 174, 170, 177, 155, 95, 50, 23, -16, -43, -47, -62, -71, -47, -16, -23, -31, -14, -9, -16, -2, 7, -28, -52, -21, -4, -19, -14, 0, -14, -14, 14, 7, -4, 35, 55, 26, 23, 52, 57, 47, 52, 57, 52, 55, 71, 79, 64, 55, 69, 81, 81, 74, 91, 124, 112, 79, 83, 88, 62]"
1714134438170970200,"[47, 64, 74, 71, 71, 45, -2, 83, 433, 893, 1047, 517, -198, -172, 139, 19, -83, 26, 38, 0, 33, 52, 33, 43, 64, 79, 91, 71, 26, 35, 76, 69, 64, 100, 122, 124, 155, 201, 208, 186, 160, 107, 43, -9, -38, -59, -119, -146, -105, -76, -86, -105, -103, -55, -35, -57, -45, -28, -33, -23, 2, 21, 14, -11, -14, 14, 38, 31, 26, 35, 31, 28, 33]"
1714134438732038543,"[33, 45, 62, 62, 59, 55, 55, 57, 47, 33, 33, 40, 40, 52, 67, 52, 45, 81, 98, 74, 47, 28, 21, 19, 31, 43, 40, 38, 47, 59, 79, 83, 79, 93, 91, 74, 71, 71, 76, 76, 67, 69, 81, 86, 59, 40, 206, 651, 1109, 1020, 270, -218, 7, 129, -52, -59, 19, -16, -28, 35, 33, 2, 45, 71, 45, 59, 93, 83, 76, 98, 131, 158, 167]"
1714134439293106890,"[174, 186, 186, 191, 210, 201, 172, 150, 110, 38, -4, -28, -76, -131, -160, -160, -155, -143, -134, -124, -107, -93, -81, -76, -74, -55, -50, -50, -33, -35, -40, -2, 14, -11, -23, 9, 43, 28, 19, 45, 50, 31, 40, 62, 57, 35, 19, 16, 47, 76, 67, 50, 57, 55, 55, 76, 83, 69, 62, 59, 59, 86, 112, 100, 86, 93, 88, 86, 100, 100, 83, 79, 100]"
1714134439854144715,"[119, 107, 100, 110, 100, 69, 50, 52, 45, 31, 35, 47, 67, 91, 91, 88, 86, 74, 69, 69, 45, 43, 76, 79, 62, 57, 28, 91, 412, 884, 1054, 515, -179, -160, 93, -28, -122, -43, -55, -91, -55, -23, -19, -26, -33, -26, -9, 16, 57, 55, 40, 71, 105, 117, 131, 153, 167, 184, 208, 206, 191, 196, 158, 81, 69, 71, 19, -21, -33, -69, -95, -79, -59]"
1714134440415213058,"[-83, -86, -35, -23, -38, -7, 9, -9, 0, 14, 14, 11, -7, -9, 19, 21, 19, 43, 43, 28, 47, 62, 57, 57, 47, 47, 57, 52, 40, 43, 52, 62, 62, 52, 64, 71, 64, 67, 67, 64, 81, 86, 76, 76, 86, 98, 100, 69, 40, 64, 88, 71, 59, 86, 115, 115, 88, 52, 47, 52, 7, -26, -11, -23, -47, -31, -19, 43, 333, 752, 848, 349, -237]"
1714134440976250883,"[-186, 83, -4, -95, -11, -4, -35, 4, 33, 2, -11, 14, 33, 40, 55, 71, 81, 93, 93, 93, 112, 148, 179, 196, 198, 210, 239, 237, 198, 155, 105, 52, 9, -11, -4, -7, -14, -11, -14, -4, 4, -4, 7, 33, 35, 38, 47, 45, 40, 47, 57, 59, 59, 59, 47, 14, -4, 23, 52, 45, 40, 40, 35, 40, 52, 62, 69, 69, 62, 55, 45, 45, 67]"
1714134441537293796,"[67, 50, 62, 69, 52, 43, 31, 4, 4, 7, -23, -43, -23, -14, -9, 2, 0, -9, 2, 14, 19, 23, 31, 47, 64, 69, 64, 52, 38, 31, 31, 55, 74, 59, 47, 33, 50, 270, 723, 1066, 798, 43, -237, 55, 93, -59, 0, 47, -23, -23, 35, 38, 28, 38, 45, 52, 57, 67, 88, 115, 134, 141, 155, 184, 194, 194, 234, 273, 263, 261, 258, 206, 143]"
1714134442098357051,"[112, 79, 23, -9, -16, -16, -16, -16, -16, -23, -33, -16, -4, -11, -2, 2, -4, 9, 33, 35, 43, 33, 2, 19, 52, 33, 28, 47, 33, 31, 52, 47, 23, -2, -16, 2, 26, 21, 2, -7, 0, -11, -23, -2, 0, -23, -14, -2, -4, 14, 21, 9, 21, 40, 33, 47, 57, 35, 47, 71, 62, 74, 105, 122, 107, 55, 16, 38, 64, 57, 50, 55, 67]"
1714134442659425398,"[79, 59, 86, 373, 879, 1085, 536, -177, -162, 117, 21, -62, 28, 26, -14, 23, 50, 50, 47, 59, 83, 83, 71, 91, 110, 100, 110, 148, 165, 162, 184, 234, 254, 232, 213, 220, 203, 143, 81, 43, 23, -7, -45, -40, -19, -26, -28, -7, -11, -26, -7, 4, 7, 11, 4, 14, 28, 9, -9, -4, 7, 7, 2, 9, 19, 11, 11, 21, 21, 16, 14, 0, -16]"
1714134443220463223,"[-21, -16, -2, 9, -11, -14, 11, 11, 4, 9, -7, -19, 2, 26, 33, 16, -7, 2, 9, 2, 0, 0, -2, 14, 33, 11, -16, 69, 395, 805, 874, 330, -266, -165, 112, -4, -67, 38, 28, -2, 38, 57, 59, 74, 57, 52, 95, 105, 88, 103, 119, 124, 153, 189, 208, 230, 258, 273, 280, 287, 275, 227, 160, 119, 86, 33, 11, 14, -9, -23, 11, 28, 7]"
1714134443781501048,"[-7, 9, 28, 31, 26, 35, 26, -19, -28, 7, 16, 9, 21, 31, 33, 45, 57, 64, 52, 19, 0, 23, 40, 31, 35, 33, 40, 69, 62, 52, 67, 59, 55, 74, 91, 81, 69, 81, 93, 79, 67, 55, 28, 9, 21, 33, 31, 43, 43, 14, 7, 105, 414, 867, 994, 381, -301, -177, 131, -23, -136, -23, -4, -40, -11, -2, -4, 16, 38, 45, 35, 23, 38]"
1714134444342569391,"[57, 64, 86, 129, 153, 155, 177, 203, 218, 237, 227, 182, 129, 79, 28, -26, -47, -40, -57, -69, -45, -33, -43, -47, -35, -19, -4, 0, -4, -26, -38, 7, 40, 31, 31, 35, 26, 35, 57, 50, 31, 47, 74, 55, 40, 79, 100, 74, 59, 76, 93, 91, 71, 71, 100, 110, 88, 81, 98, 107, 100, 76, 50, 62, 88, 79, 67, 83, 88, 74, 88, 117, 119]"
1714134444903607216,"[124, 122, 91, 64, 59, 40, 23, 7, -4, 11, 21, -9, 14, 258, 718, 1018, 663, -86, -266, 16, -33, -182, -91, -52, -100, -79, -57, -62, -33, -16, -16, 2, 11, 14, 26, 40, 62, 86, 117, 134, 141, 162, 189, 203, 218, 227, 201, 155, 117, 64, 23, 16, 0, -26, -31, -28, -31, -14, -7, -28, -7, 43, 31, 9, 23, 31, 33, 45, 55, 43, 14, 11, 21]"
1714134445464645041,"[11, 23, 62, 62, 26, 7, 14, 26, 35, 40, 43, 33, 11, 26, 71, 67, 40, 50, 64, 64, 69, 74, 62, 50, 64, 81, 79, 69, 69, 74, 83, 103, 100, 100, 115, 124, 139, 124, 86, 79, 88, 83, 83, 86, 69, 57, 55, 50, 98, 376, 795, 929, 486, -117, -155, 105, 38, -76, 4, 35, -11, -21, -31, -59, -59, -52, -35, -2, 14, 11, 23, 45, 62]"
1714134446025713388,"[81, 105, 115, 122, 143, 158, 186, 210, 167, 115, 98, 59, 4, -28, -52, -71, -76, -69, -55, -47, -47, -45, -35, -23, -4, 21, 23, -2, 2, 26, 38, 50, 47, 38, 38, 43, 38, 28, 43, 71, 64, 55, 64, 57, 50, 81, 88, 64, 71, 86, 76, 74, 95, 91, 59, 43, 64, 79, 57, 57, 93, 105, 103, 105, 81, 59, 64, 69, 55, 55, 71, 74, 64]"
1714134446586751213,"[52, 127, 426, 850, 949, 433, -162, -105, 148, 52, -28, 28, 16, -2, 23, 31, 19, 14, 35, 64, 59, 62, 79, 81, 88, 93, 79, 93, 122, 139, 153, 174, 191, 186, 177, 143, 81, 35, 2, -43, -52, -45, -52, -64, -62, -55, -57, -74, -79, -67, -57, -50, -28, -19, -19, -11, -4, -4, -2, 2, 9, 11, 19, 26, 23, 28, 45, 67, 64, 43, 38, 59, 79]"
1714134447147819556,"[76, 62, 62, 67, 79, 88, 71, 59, 71, 64, 52, 69, 81, 67, 57, 67, 64, 45, 55, 76, 81, 86, 100, 110, 103, 79, 57, 57, 79, 98, 93, 79, 71, 76, 74, 93, 313, 754, 1052, 728, -28, -273, 35, 62, -98, -45, 19, -4, -9, -14, -28, -26, -14, -2, -2, -11, 4, 40, 45, 47, 79, 103, 115, 139, 165, 174, 201, 215, 189, 182, 182, 124, 50]"
1714134447708857381,"[7, -7, -11, -19, -14, -14, -28, -43, -33, -4, -2, -26, -45, -38, -21, 0, 19, 11, 7, 19, 11, 31, 74, 52, 31, 59, 69, 57, 64, 67, 67, 74, 59, 31, 35, 47, 40, 40, 67, 79, 47, 21, 31, 47, 62, 64, 55, 55, 55, 62, 74, 86, 79, 67, 71, 81, 86, 98, 103, 119, 136, 124, 105, 88, 74, 67, 62, 59, 62, 74, 71, 50, 28]"
1714134448269895206,"[119, 460, 889, 910, 273, -280, -115, 76, -91, -146, -57, -52, -74, -45, -26, -31, -11, 4, 4, 28, 43, 38, 52, 76, 98, 107, 88, 88, 136, 177, 177, 167, 172, 167, 139, 107, 79, 33, -4, -9, -23, -50, -40, -9, -14, -23, 2, 14, -4, 14, 47, 35, 26, 40, 52, 57, 55, 43, 57, 83, 81, 79, 83, 69, 57, 59, 59, 57, 62, 71, 74, 74, 76]"
1714134448830963549,"[81, 81, 74, 76, 74, 69, 76, 79, 74, 67, 62, 67, 67, 64, 71, 69, 57, 79, 91, 47, 26, 50, 40, 9, 16, 38, 47, 52, 64, 57, 19, 7, 35, 35, 9, 11, 26, 16, -4, -19, 71, 397, 819, 872, 282, -266, -127, 64, -69, -69, 21, -16, -40, -2, -9, -28, -2, 16, 11, 16, 43, 74, 88, 81, 76, 117, 172, 179, 184, 210, 220, 230, 246]"
1714134449392006465,"[237, 210, 170, 86, 21, 35, 33, -2, -16, -23, -35, -43, -55, -62, -62, -59, -52, -35, -23, -14, 9, 16, 4, 16, 40, 43, 33, 33, 55, 67, 55, 59, 79, 79, 64, 59, 76, 93, 86, 74, 81, 79, 76, 110, 107, 71, 79, 88, 76, 83, 83, 64, 64, 81, 88, 88, 86, 81, 79, 93, 103, 91, 76, 69, 59, 74, 112, 119, 93, 83, 81, 67, 57]"
1714134449953069721,"[38, 2, -7, 0, -33, -62, -52, -38, 107, 503, 874, 680, -38, -347, -50, 16, -139, -79, -14, -79, -71, -2, -2, -23, -4, 9, 14, 38, 62, 67, 64, 86, 117, 131, 146, 174, 194, 206, 222, 227, 225, 213, 174, 129, 98, 62, 31, 14, 2, -2, -14, -14, 9, 16, 9, 16, 23, 33, 40, 33, 38, 59, 59, 50, 59, 71, 69, 67, 59, 33, 21, 31, 52]"
1714134450514107546,"[69, 55, 45, 59, 64, 57, 62, 59, 57, 59, 76, 100, 81, 62, 64, 26, 9, 45, 40, 16, 26, 33, 26, 40, 50, 26, 7, 14, 4, -16, -2, 11, -2, 2, 43, 64, 45, 35, 28, 4, 9, 28, 26, 19, 26, 40, 31, 47, 256, 671, 937, 635, -16, -196, 74, 79, -50, 19, 55, -2, -11, -19, -45, -21, 19, 31, 31, 38, 50, 64, 81, 105, 119]"
1714134451075175889,"[124, 141, 177, 213, 227, 237, 234, 201, 179, 167, 119, 59, 16, -26, -33, 2, 4, -19, -19, -31, -33, -9, 0, -4, -9, -7, 2, 19, 50, 62, 35, 28, 50, 67, 69, 62, 47, 55, 71, 71, 79, 83, 69, 62, 79, 93, 93, 88, 69, 55, 52, 45, 28, 0, -14, 0, 2, 11, 38, 28, -4, -23, -21, -9, -4, -7, -2, 31, 67, 52, 4, -9, 0]"
1714134451636239149,"[2, 11, 19, 4, 11, 33, 26, 129, 488, 879, 812, 189, -254, -59, 91, -67, -69, 7, -28, -16, 28, 9, -2, 31, 47, 43, 50, 69, 81, 91, 112, 127, 131, 167, 203, 210, 222, 244, 263, 261, 237, 208, 153, 86, 38, 11, -11, -57, -71, -50, -50, -52, -40, -33, -23, -11, -11, 4, 19, 2, 11, 45, 40, 31, 40, 43, 43, 52, 52, 40, 43, 64, 76]"
1714134452197282057,"[59, 57, 74, 71, 62, 62, 57, 43, 35, 55, 57, 40, 45, 43, 28, 40, 50, 40, 33, 23, 33, 62, 59, 31, 26, 33, 23, 23, 47, 59, 26, -2, -2, -19, -21, 0, -4, -11, 0, -33, -69, 100, 520, 874, 699, 19, -301, -19, 62, -105, -55, 31, -21, -28, 21, 26, 23, 38, 45, 55, 71, 81, 91, 103, 100, 103, 127, 153, 172, 196, 210, 225, 244]"
1714134452758350404,"[246, 232, 201, 141, 74, 28, 0, -14, -26, -38, -33, -26, -11, 0, -7, 0, 26, 21, 11, 28, 31, 21, 28, 26, 16, 43, 55, 23, 26, 64, 62, 45, 33, 7, 2, 21, 21, 28, 45, 26, 19, 59, 83, 67, 59, 52, 35, 40, 67, 74, 59, 57, 62, 57, 52, 50, 38, 14, 9, 21, 28, 50, 74, 64, 38, 28, 11, -7, -14, -19, -16, -9, 9]"
1714134453319388229,"[16, -4, -11, 148, 534, 898, 774, 115, -273, -31, 91, -69, -62, 0, -57, -74, -14, 14, -4, -9, 2, 11, 35, 55, 50, 40, 40, 62, 103, 136, 153, 160, 174, 198, 225, 230, 208, 160, 115, 95, 52, 2, 11, 4, -43, -33, 0, -23, -47, -31, -28, -28, -2, 9, -2, 7, 23, 21, 26, 43, 59, 55, 45, 55, 69, 67, 57, 55, 69, 74, 62, 64, 88]"
1714134453880426054,"[91, 71, 64, 81, 88, 59, 31, 52, 76, 59, 31, 19, 33, 45, 43, 43, 57, 74, 67, 38, 16, -7, -21, -7, 2, -14, -4, 19, 7, 0, 55, 249, 608, 838, 500, -158, -292, -2, -21, -148, -69, -33, -67, -43, -21, -23, -7, 7, 7, 23, 43, 47, 57, 91, 115, 119, 134, 165, 189, 218, 244, 244, 244, 251, 232, 191, 134, 74, 35, 9, -26, -50, -38]"
1714134454441484227,"[-19, -21, -21, -9, -4, -2, 2, 0, -14, -11, -4, -28, -45, -31, -23, 2, 45, 35, 4, 19, 50, 52, 33, 28, 45, 67, 64, 52, 67, 74, 40, 28, 57, 67, 52, 64, 79, 67, 71, 98, 112, 117, 103, 74, 64, 69, 83, 98, 86, 71, 79, 76, 67, 167, 503, 908, 958, 400, -182, -76, 160, 7, -62, 43, 33, 0, 31, 40, 40, 62, 74, 47, 14]"
1714134455002532222,"[35, 76, 71, 57, 35, 9, 38, 93, 107, 127, 162, 172, 158, 150, 131, 83, 26, -21, -50, -59, -64, -83, -98, -93, -86, -76, -57, -40, -35, -38, -33, -14, 2, 2, 26, 40, 23, 23, 43, 57, 55, 40, 43, 67, 81, 79, 71, 64, 83, 105, 93, 81, 83, 67, 59, 81, 83, 64, 71, 105, 100, 86, 107, 115, 81, 67, 95, 119, 110, 81, 57, 59, 91]"
1714134455563570047,"[117, 124, 112, 93, 71, 67, 86, 81, 47, 43, 67, 57, 21, 38, 256, 707, 1047, 766, 19, -244, 47, 67, -91, -19, 45, -4, -7, 23, 23, 21, 28, 38, 33, 28, 40, 55, 62, 62, 74, 95, 112, 150, 201, 198, 177, 198, 222, 198, 158, 115, 59, 14, -11, -35, -52, -40, -19, -21, -21, -4, -7, -4, 9, -11, -33, -31, -21, -7, 4, 11, 16, 21, 31]"
1714134456124638394,"[50, 47, 26, 23, 31, 14, -2, 0, 4, 11, 31, 40, 40, 47, 45, 38, 59, 67, 52, 69, 76, 52, 57, 88, 88, 76, 88, 95, 86, 88, 95, 91, 98, 105, 88, 67, 79, 95, 95, 98, 103, 98, 91, 103, 115, 103, 105, 119, 122, 139, 150, 107, 76, 93, 81, 43, 23, 33, 28, 11, 23, 155, 524, 973, 968, 270, -292, -124, 40, -115, -124, -33, -40]"
1714134456685676219,"[-50, -35, -40, -23, 9, 7, 4, 14, 14, 9, 28, 55, 71, 93, 100, 100, 158, 218, 208, 196, 210, 203, 184, 172, 117, 43, -4, -35, -38, -19, -26, -38, -31, -19, -9, -4, 4, 9, 7, 16, 35, 50, 43, 38, 43, 50, 47, 23, 9, 28, 38, 38, 50, 59, 55, 47, 35, 23, 31, 52, 47, 33, 55, 62, 55, 71, 79, 57, 52, 67, 76, 79, 76]"
1714134457246714044,"[62, 59, 91, 98, 79, 86, 98, 79, 69, 98, 115, 81, 50, 52, 67, 83, 67, 31, 19, 26, 28, 35, 52, 57, 40, 23, 35, 71, 62, 31, 38, 38, 4, 0, 21, 11, 2, 23, 43, 14, -45, -21, 249, 718, 1001, 623, -115, -249, 47, -11, -143, -35, 4, -64, -45, 2, 0, 19, 47, 40, 45, 57, 62, 76, 93, 117, 139, 134, 153, 206, 222, 234, 256]"
1714134457807782387,"[254, 256, 246, 198, 153, 117, 69, 35, -9, -52, -45, -35, -47, -45, -28, -21, -19, -11, -11, -9, 7, 26, 43, 45, 33, 40, 52, 55, 59, 59, 57, 71, 71, 40, 28, 50, 64, 52, 47, 47, 26, 11, 31, 38, 14, 7, 28, 50, 43, 23, 26, 28, 26, 35, 35, 21, 4, -9, -2, 19, 28, 14, 7, 21, 26, 26, 26, 19, 7, 23, 69, 74, 47]"
1714134458368820212,"[50, 35, 14, 31, 43, 26, 2, -9, 11, 31, 2, 59, 359, 759, 903, 503, -127, -198, 95, 47, -76, 33, 76, 7, 16, 57, 31, 9, 38, 43, 23, 33, 62, 79, 86, 83, 100, 127, 158, 208, 230, 225, 244, 263, 249, 242, 218, 148, 83, 57, 26, -4, -23, -33, -19, -4, -9, 2, 9, -2, -2, 9, 23, 14, -11, 7, 33, 19, 9, 16, 14, 19, 31]"
1714134458929858037,"[16, 9, 50, 69, 16, -2, 16, 7, -9, -21, -40, -40, -23, 4, 26, 2, -16, -2, -14, -40, -19, 2, -4, -21, -40, -43, -23, -9, -21, -21, -2, 0, -11, -11, 86, 424, 865, 946, 371, -261, -170, 115, 14, -45, 45, 38, 16, 52, 64, 62, 86, 93, 76, 86, 107, 103, 103, 127, 146, 162, 179, 208, 258, 282, 275, 287, 301, 285, 244, 189, 139, 95, 38]"
1714134459490926384,"[2, 2, -4, -23, -19, -4, 0, -2, 4, 23, 28, 16, -2, -31, -31, -9, 2, 9, 4, -11, -11, 2, 19, 26, 21, 35, 43, 26, 21, 23, 19, 28, 50, 35, 19, 52, 74, 69, 62, 28, -9, -2, 4, -9, -2, 14, 7, -19, -50, -33, 150, 570, 1020, 941, 165, -325, -47, 103, -81, -59, 31, -9, -23, 11, 26, 40, 45, 45, 62, 81, 81, 83, 107]"
1714134460051964209,"[134, 141, 153, 174, 196, 196, 196, 215, 227, 210, 167, 122, 76, 31, -14, -47, -57, -55, -62, -71, -52, -19, -16, -26, -14, -2, -7, 4, 26, 33, 26, 33, 35, 47, 71, 67, 43, 35, 31, 35, 47, 55, 59, 71, 74, 67, 79, 86, 86, 86, 81, 76, 83, 88, 93, 98, 88, 93, 107, 107, 105, 103, 95, 115, 136, 134, 129, 117, 86, 71, 76, 52, 26]"
1714134460613002034,"[50, 57, 16, -9, 28, 275, 776, 1119, 750, -59, -273, 35, 7, -158, -83, -40, -88, -59, -28, -57, -47, -4, 2, 9, 23, 21, 31, 40, 43, 74, 100, 100, 127, 182, 206, 206, 208, 210, 208, 177, 119, 74, 21, -28, -16, 9, -7, -23, -4, 7, 2, 4, 14, 14, 19, 19, 28, 59, 74, 47, 23, 38, 57, 50, 16, -7, 0, 31, 50, 38, 31, 50, 52]"
1714134461174070377,"[40, 52, 62, 57, 62, 67, 74, 86, 86, 74, 57, 45, 47, 52, 59, 62, 67, 67, 50, 33, 52, 57, 45, 71, 88, 71, 86, 100, 74, 62, 79, 86, 81, 93, 105, 110, 122, 129, 124, 110, 98, 98, 88, 81, 110, 110, 81, 81, 79, 117, 388, 884, 1133, 649, -112, -184, 91, -14, -134, -33, -23, -64, -19, 0, -19, -7, 0, -4, -11, -21, 2, 38, 38]"
1714134461735108202,"[35, 57, 79, 112, 146, 153, 165, 167, 155, 167, 155, 100, 57, 9, -31, -31, -38, -71, -86, -81, -59, -19, -9, -28, -26, -11, -11, 0, 4, 7, 31, 35, 26, 40, 43, 43, 59, 62, 59, 67, 71, 52, 28, 43, 74, 62, 50, 74, 88, 45, 2, 21, 64, 43, 9, 43, 79, 67, 47, 45, 57, 62, 64, 69, 79, 81, 64, 59, 83, 88, 86, 100, 93]"
1714134462296176545,"[69, 69, 71, 69, 50, 33, 43, 62, 64, 59, 50, 55, 91, 122, 122, 95, 59, 45, 64, 83, 91, 88, 69, 57, 55, 62, 230, 642, 1028, 855, 112, -256, 26, 91, -119, -88, 4, -40, -67, -40, -43, -43, -47, -67, -40, -11, -33, -33, 16, 50, 57, 74, 83, 100, 155, 198, 186, 179, 206, 206, 167, 127, 100, 45, -26, -43, -28, -50, -67, -47, -43, -55, -26]"
1714134462857244892,"[9, -2, -19, -4, 28, 43, 31, 7, -23, -14, 26, 33, 35, 45, 23, 11, 43, 71, 62, 52, 50, 52, 74, 76, 38, 28, 52, 64, 64, 62, 57, 50, 59, 83, 74, 28, 9, 26, 33, 31, 38, 50, 52, 45, 40, 59, 83, 74, 57, 40, 28, 50, 67, 50, 50, 57, 47, 38, 31, 43, 57, 50, 26, -7, -9, 19, 11, -4, 9, 21, 28, 16, -9]"
1714134463418282717,"[76, 407, 843, 956, 421, -215, -150, 124, -9, -95, 9, -4, -47, -11, 7, -4, -9, -9, 2, 23, 40, 52, 69, 86, 100, 117, 136, 162, 177, 170, 182, 215, 215, 210, 213, 179, 112, 59, 21, -11, -35, -38, -19, -19, -38, -31, -14, -19, -19, -4, -2, -2, 0, 19, 31, 21, 28, 35, 28, 47, 71, 55, 52, 64, 40, 33, 57, 55, 33, 38, 57, 59, 43]"
1714134463979351060,"[38, 35, 14, -4, 2, 11, -7, -26, -26, -28, -26, -9, -4, -2, 19, 16, -11, -16, -11, -9, 7, -4, -35, -19, -11, -35, 105, 500, 867, 781, 160, -301, -98, 105, -21, -33, 38, 11, 0, 14, 23, 67, 79, 52, 69, 98, 93, 105, 127, 129, 139, 170, 203, 230, 254, 263, 270, 301, 316, 299, 258, 182, 119, 93, 50, 14, 21, 21, 2, -11, -19, -7, 2]"
1714134464540409233,"[-9, -7, 19, 28, 23, 26, 28, 38, 55, 57, 52, 43, 28, 19, 4, 2, 19, 28, 14, 0, 7, 23, 31, 14, -2, 21, 59, 59, 28, 0, -16, -14, -2, -4, -4, 7, 19, 40, 57, 47, 31, 19, 21, 26, 23, 35, 38, 19, 28, 50, 98, 373, 860, 1052, 517, -167, -127, 148, 21, -64, 38, 35, -4, 23, 35, 38, 50, 52, 67, 91, 86, 86, 122]"
1714134465101457228,"[141, 139, 165, 186, 189, 196, 203, 220, 210, 196, 222, 213, 146, 98, 62, 14, -11, -16, -23, -31, -23, -19, -21, -11, -4, -7, -2, 23, 33, 16, 26, 50, 47, 47, 69, 74, 67, 69, 76, 81, 81, 76, 76, 93, 103, 88, 86, 105, 103, 83, 95, 115, 86, 59, 76, 83, 69, 86, 95, 79, 91, 103, 81, 67, 74, 69, 64, 88, 112, 110, 88, 50, 16]"
