time,ecg
1714325422678457000,"[13074, 13598, 14085, 14534, 14941, 15322, 15680, 15985, 16272, 16557, 16783, 16973, 17189, 17415, 17625, 17810, 17966, 18104, 18253, 18403, 18532, 18648, 18730, 18786, 18864, 18991, 19087, 19045, 18991, 19040, 19069, 19052, 19076, 19078, 19010, 18949, 18927, 18897, 18857, 18803, 18711, 18619, 18563, 18499, 18441, 18370, 18229, 18093, 18001, 17902, 17810, 17702, 17547, 17422, 17326, 17211, 17121, 17020, 16815, 16710, 16987, 17413, 17380, 16550, 15649, 15625, 15807, 15517, 15310, 15270, 15080, 14920, 14840]"
1714325423239566035,"[14687, 14544, 14402, 14217, 14071, 13960, 13831, 13702, 13556, 13396, 13271, 13165, 13069, 12970, 12787, 12603, 12523, 12401, 12227, 12086, 11881, 11667, 11524, 11361, 11194, 11049, 10886, 10731, 10611, 10501, 10381, 10261, 10134, 10002, 9894, 9793, 9687, 9576, 9452, 9334, 9235, 9130, 9024, 8911, 8791, 8683, 8579, 8480, 8384, 8273, 8142, 8024, 7939, 7848, 7744, 7643, 7540, 7439, 7354, 7267, 7173, 7074, 6980, 6891, 6804, 6724, 6637, 6540, 6460, 6387, 6321, 6258, 6161]"
1714325423800685240,"[6056, 5964, 5884, 5816, 5745, 5663, 5585, 5512, 5435, 5336, 5240, 5225, 5439, 5882, 6119, 5604, 4673, 4409, 4692, 4612, 4386, 4419, 4402, 4287, 4247, 4209, 4139, 4089, 4038, 3981, 3937, 3897, 3852, 3812, 3777, 3737, 3706, 3678, 3643, 3624, 3591, 3539, 3504, 3466, 3414, 3365, 3299, 3226, 3149, 3069, 3003, 2942, 2885, 2838, 2803, 2770, 2732, 2704, 2674, 2643, 2622, 2589, 2556, 2532, 2502, 2478, 2455, 2422, 2394, 2365, 2337, 2309, 2269]"
1714325424361814619,"[2224, 2199, 2175, 2147, 2109, 2067, 2020, 1992, 1956, 1914, 1905, 1895, 1865, 1843, 1825, 1803, 1792, 1775, 1752, 1728, 1709, 1698, 1681, 1662, 1639, 1615, 1601, 1587, 1575, 1559, 1531, 1505, 1479, 1472, 1479, 1474, 1462, 1432, 1385, 1349, 1333, 1326, 1305, 1279, 1272, 1262, 1251, 1234, 1199, 1234, 1538, 2074, 2368, 1881, 987, 790, 1112, 1053, 884, 961, 980, 907, 921, 936, 903, 903, 905, 893, 898, 900, 886, 856, 851]"
1714325424922938915,"[865, 877, 889, 903, 905, 886, 872, 889, 900, 889, 874, 841, 804, 776, 738, 705, 674, 642, 627, 627, 630, 625, 609, 599, 604, 616, 620, 618, 618, 609, 609, 620, 620, 618, 611, 599, 602, 604, 602, 604, 592, 580, 573, 576, 580, 573, 562, 552, 552, 559, 555, 547, 540, 529, 517, 503, 503, 508, 493, 489, 496, 493, 493, 482, 449, 432, 444, 458, 456, 449, 442, 420, 413]"
1714325425484042859,"[420, 420, 416, 406, 402, 404, 409, 406, 378, 352, 362, 373, 383, 376, 357, 338, 305, 286, 303, 305, 296, 296, 303, 305, 303, 298, 282, 378, 764, 1277, 1408, 801, 49, 72, 366, 249, 169, 286, 282, 223, 235, 242, 246, 298, 336, 301, 272, 286, 291, 291, 326, 364, 359, 362, 390, 395, 378, 373, 390, 402, 388, 373, 362, 336, 305, 265, 228, 206, 192, 185, 178, 178, 183]"
1714325426045172242,"[178, 192, 206, 197, 178, 159, 150, 171, 188, 185, 192, 202, 199, 202, 206, 204, 211, 228, 228, 218, 216, 218, 221, 216, 214, 223, 225, 221, 218, 221, 228, 235, 235, 228, 228, 228, 206, 188, 197, 199, 190, 185, 192, 204, 218, 230, 225, 204, 178, 155, 136, 129, 122, 112, 112, 124, 129, 117, 122, 270, 684, 1126, 1077, 369, -197, 2, 225, 65, 18, 96, 72, 63, 110]"
1714325426606281277,"[119, 117, 129, 138, 148, 166, 178, 181, 171, 164, 188, 223, 244, 261, 275, 291, 308, 317, 317, 305, 277, 239, 204, 169, 138, 110, 77, 51, 44, 51, 61, 63, 58, 65, 77, 87, 96, 105, 103, 110, 124, 112, 91, 94, 98, 103, 119, 131, 138, 134, 124, 129, 138, 141, 143, 141, 131, 136, 148, 136, 119, 117, 115, 105, 110, 119, 122, 115, 110, 119, 129, 127, 127]"
1714325427167400482,"[124, 124, 145, 169, 171, 152, 119, 89, 79, 89, 96, 84, 65, 65, 79, 82, 68, 103, 355, 856, 1225, 910, 61, -249, 82, 127, -44, 18, 79, 28, 37, 82, 91, 96, 77, 63, 96, 96, 89, 162, 190, 143, 159, 204, 216, 254, 277, 263, 279, 305, 279, 249, 244, 216, 152, 103, 103, 108, 89, 72, 32, -11, 21, 68, 58, 61, 75, 65, 70, 89, 117, 136, 127]"
1714325427728529861,"[101, 87, 108, 124, 110, 105, 110, 115, 115, 105, 89, 87, 89, 89, 82, 58, 61, 84, 79, 63, 58, 47, 42, 51, 56, 54, 44, 39, 51, 65, 70, 65, 65, 79, 98, 110, 119, 108, 91, 103, 115, 98, 77, 79, 82, 87, 103, 122, 122, 112, 105, 110, 117, 119, 117, 112, 112, 115, 112, 96, 75, 188, 623, 1199, 1295, 555, -190, -65, 202, 37, -21, 87, 68]"
1714325428289659240,"[30, 63, 79, 79, 94, 96, 82, 87, 110, 124, 129, 136, 145, 157, 181, 204, 218, 228, 230, 214, 199, 206, 206, 178, 148, 122, 96, 72, 42, 4, -4, 4, 0, -11, -9, -4, 0, 16, 30, 37, 44, 42, 44, 51, 51, 49, 42, 23, 28, 47, 51, 54, 56, 54, 58, 68, 75, 82, 82, 77, 79, 91, 96, 98, 94, 77, 77, 91, 98, 98, 96, 89, 96]"
1714325428850788619,"[108, 115, 119, 115, 105, 115, 129, 134, 129, 105, 79, 70, 63, 63, 75, 68, 61, 75, 91, 105, 119, 127, 119, 96, 75, 77, 87, 82, 84, 98, 108, 110, 103, 91, 178, 543, 1048, 1197, 611, -131, -108, 199, 87, -14, 84, 84, 42, 84, 110, 101, 108, 119, 124, 134, 145, 145, 143, 152, 166, 183, 202, 218, 230, 244, 256, 261, 256, 237, 221, 206, 178, 138, 105]"
1714325429411918002,"[77, 47, 28, 4, -25, -32, -32, -47, -49, -42, -39, -39, -44, -37, -30, -42, -39, -18, -16, -16, -2, 2, 11, 23, 23, 21, 32, 37, 39, 44, 47, 54, 61, 61, 63, 70, 72, 79, 87, 87, 91, 96, 96, 98, 105, 108, 103, 89, 82, 96, 105, 98, 101, 108, 108, 117, 124, 119, 122, 124, 124, 129, 138, 148, 159, 171, 176, 162, 136, 108, 82, 84, 98]"
1714325429973027037,"[103, 105, 110, 103, 89, 117, 355, 823, 1178, 896, 89, -232, 91, 143, -39, -7, 39, -2, 18, 56, 47, 49, 70, 82, 91, 103, 108, 115, 129, 148, 164, 176, 188, 199, 221, 242, 251, 242, 221, 202, 199, 183, 152, 115, 68, 30, 18, 16, 11, 9, 9, 7, 16, 28, 35, 39, 37, 42, 54, 54, 49, 39, 11, -2, 11, 23, 23, 25, 21, 7, -2, 2, 9]"
1714325430534146242,"[14, 11, 14, 25, 35, 37, 35, 18, 21, 37, 44, 49, 63, 58, 56, 75, 89, 89, 82, 79, 87, 96, 103, 108, 103, 101, 110, 117, 112, 103, 94, 87, 94, 101, 108, 124, 134, 138, 138, 124, 110, 112, 112, 108, 110, 117, 129, 136, 119, 98, 164, 463, 933, 1171, 743, -35, -197, 134, 117, -37, 35, 58, -2, 25, 70, 63, 63, 82, 91, 101, 117, 122, 122]"
1714325431095275621,"[138, 157, 166, 174, 181, 190, 202, 218, 235, 228, 195, 176, 174, 155, 122, 89, 56, 23, -2, -23, -44, -68, -72, -61, -58, -47, -28, -23, -18, -4, 2, 9, 23, 28, 35, 42, 44, 54, 61, 61, 63, 70, 70, 68, 75, 79, 70, 51, 35, 44, 54, 44, 37, 37, 39, 49, 61, 65, 70, 75, 79, 87, 89, 91, 98, 105, 105, 108, 110, 110, 124, 145, 155]"
1714325431656405000,"[155, 143, 119, 110, 117, 117, 110, 96, 89, 98, 101, 75, 65, 218, 609, 999, 938, 296, -214, -25, 181, 30, -2, 87, 63, 42, 87, 103, 96, 108, 117, 119, 131, 145, 143, 136, 141, 152, 169, 183, 178, 166, 178, 188, 181, 185, 190, 174, 152, 122, 77, 37, 4, -32, -51, -47, -42, -39, -30, -28, -28, -14, 4, 14, 21, 25, 30, 42, 56, 61, 61, 58, 61]"
1714325432217534383,"[72, 77, 68, 49, 30, 23, 35, 51, 56, 58, 51, 54, 72, 84, 87, 84, 82, 84, 98, 105, 108, 110, 105, 108, 117, 127, 131, 129, 119, 122, 134, 134, 124, 112, 110, 117, 119, 105, 96, 94, 91, 96, 108, 117, 119, 117, 110, 103, 157, 437, 896, 1119, 700, -30, -159, 171, 157, 4, 65, 110, 72, 94, 124, 105, 105, 124, 122, 112, 124, 129, 129, 148, 171]"
1714325432778633244,"[188, 199, 211, 223, 242, 251, 246, 230, 204, 192, 188, 164, 127, 91, 56, 25, 9, 4, 7, 2, -14, -28, -23, -21, -23, -28, -44, -42, -21, -11, -9, -2, 2, 7, 16, 30, 32, 30, 35, 37, 39, 51, 54, 51, 54, 56, 63, 70, 70, 72, 77, 77, 79, 89, 87, 87, 98, 105, 105, 110, 96, 70, 70, 79, 82, 87, 94, 94, 91, 96, 94, 84, 195]"
1714325433339762623,"[580, 1060, 1117, 475, -195, -98, 185, 58, -21, 79, 63, 4, 42, 75, 63, 72, 82, 72, 65, 58, 61, 82, 96, 108, 134, 157, 171, 197, 218, 223, 228, 232, 225, 209, 181, 143, 108, 75, 39, 18, 7, 2, 9, 11, 9, 11, 16, 23, 23, 16, 14, 14, 11, 21, 37, 39, 39, 44, 47, 51, 58, 63, 58, 54, 56, 56, 51, 42, 32, 21, 18, 30, 37]"
1714325433900876745,"[32, 28, 28, 32, 42, 44, 39, 30, 23, 28, 32, 18, 4, 9, 11, 11, 9, 2, -2, 0, 4, 16, 30, 37, 44, 42, 32, 35, 178, 609, 1114, 1135, 413, -249, -87, 169, 2, -56, 47, 25, -11, 30, 49, 32, 49, 77, 82, 91, 103, 101, 115, 141, 157, 174, 188, 202, 221, 244, 258, 263, 256, 244, 232, 218, 183, 141, 101, 63, 44, 39, 37, 25, 2]"
1714325434461990863,"[-2, 16, 28, 21, 2, -11, -4, 11, 25, 37, 44, 44, 47, 56, 68, 72, 63, 44, 37, 51, 61, 61, 56, 42, 37, 47, 56, 58, 61, 56, 47, 37, 44, 54, 54, 51, 54, 51, 47, 47, 37, 25, 30, 39, 44, 47, 47, 44, 47, 54, 61, 63, 63, 65, 68, 72, 79, 82, 79, 75, 82, 101, 110, 101, 91, 82, 68, 68, 84, 82, 58, 49, 61]"
1714325435023120242,"[70, 70, 54, 63, 275, 773, 1244, 1100, 256, -263, 14, 152, -44, -23, 63, 18, 16, 58, 61, 56, 51, 42, 37, 44, 65, 79, 84, 101, 122, 136, 155, 178, 195, 214, 228, 228, 230, 230, 218, 199, 171, 129, 94, 70, 47, 37, 32, 28, 30, 35, 39, 47, 54, 49, 37, 39, 51, 63, 68, 70, 72, 70, 49, 35, 47, 54, 47, 42, 37, 44, 49, 44, 44]"
1714325435584219103,"[49, 54, 61, 63, 56, 42, 32, 37, 49, 42, 28, 23, 9, -7, 0, 7, 4, 4, 14, 23, 32, 37, 37, 37, 42, 51, 61, 65, 61, 58, 68, 79, 87, 87, 84, 82, 89, 101, 108, 108, 101, 103, 110, 117, 110, 94, 89, 110, 134, 134, 119, 108, 98, 91, 89, 70, 65, 82, 77, 68, 63, 89, 319, 806, 1208, 997, 176, -251, 56, 155, -47, -9, 77]"
1714325436145348486,"[32, 37, 82, 68, 51, 72, 89, 91, 84, 72, 84, 110, 127, 138, 155, 162, 181, 206, 225, 237, 235, 225, 223, 221, 206, 174, 134, 91, 70, 49, 23, 7, 2, -2, 4, 9, 2, -2, 0, 7, 16, 30, 44, 47, 37, 28, 16, -9, -28, -16, -14, -18, -9, 4, 7, 7, 7, 9, 18, 28, 32, 32, 32, 37, 44, 54, 61, 61, 49, 39, 51, 65, 68]"
1714325436706447347,"[68, 70, 70, 75, 87, 89, 89, 89, 89, 94, 103, 89, 70, 70, 79, 84, 89, 89, 87, 91, 96, 96, 103, 103, 101, 117, 129, 124, 112, 98, 82, 75, 82, 89, 91, 94, 96, 98, 91, 72, 94, 333, 827, 1182, 867, 44, -258, 61, 103, -68, -9, 54, 7, 14, 56, 56, 54, 72, 79, 75, 79, 96, 103, 112, 129, 131, 136, 157, 181, 197, 206, 218, 235]"
1714325437267576726,"[237, 223, 209, 188, 150, 112, 72, 28, -7, -39, -68, -70, -63, -61, -58, -54, -42, -30, -39, -44, -28, -16, -16, -7, 9, 18, 18, 21, 37, 49, 51, 47, 25, 9, 30, 49, 39, 37, 44, 51, 61, 70, 77, 79, 68, 65, 89, 98, 89, 87, 89, 98, 103, 101, 103, 105, 101, 108, 122, 127, 129, 127, 117, 119, 141, 162, 169, 159, 141, 127, 131, 141, 138]"
1714325437828675587,"[129, 127, 138, 145, 145, 136, 131, 291, 714, 1053, 851, 159, -251, -11, 157, 9, -7, 58, 18, 9, 56, 63, 61, 72, 63, 47, 61, 77, 82, 82, 72, 72, 119, 152, 127, 124, 174, 209, 204, 199, 214, 204, 138, 79, 49, 9, -30, -56, -61, -51, -56, -56, -49, -54, -39, -7, 11, 14, 11, 16, 25, 30, 47, 63, 56, 47, 56, 65, 70, 75, 72, 70, 65]"
1714325438389799883,"[51, 37, 49, 56, 39, 42, 68, 77, 72, 61, 39, 35, 51, 63, 63, 61, 65, 51, 23, 35, 68, 75, 65, 58, 49, 51, 58, 58, 56, 63, 70, 75, 68, 54, 51, 188, 609, 1110, 1128, 409, -244, -84, 164, 7, -47, 39, 11, -14, 32, 44, 30, 42, 56, 61, 72, 84, 87, 96, 115, 124, 129, 143, 155, 155, 162, 166, 174, 181, 171, 155, 127, 82, 35]"
1714325438950903827,"[-2, -32, -58, -70, -61, -49, -70, -94, -68, -54, -91, -105, -79, -68, -63, -47, -37, -23, -9, 2, 11, 21, 23, 16, 4, 11, 30, 35, 32, 39, 42, 44, 56, 61, 61, 65, 68, 75, 84, 87, 84, 84, 89, 91, 101, 110, 103, 94, 101, 122, 145, 150, 136, 112, 98, 91, 87, 84, 87, 84, 87, 101, 103, 84, 98, 355, 910, 1333, 1020, 124, -246, 75, 136]"
1714325439512007779,"[-44, 11, 68, -21, -54, -9, 11, 11, 28, 35, 37, 56, 75, 87, 89, 84, 98, 131, 159, 185, 202, 202, 206, 223, 225, 216, 197, 157, 110, 75, 49, 25, 2, -16, -18, -14, -21, -25, -25, -39, -37, -16, -9, -7, -2, -7, -11, -9, -2, 9, 11, 11, 21, 32, 39, 44, 39, 32, 37, 49, 58, 61, 56, 49, 56, 68, 75, 75, 70, 49, 28, 35, 51]"
1714325440073132071,"[54, 47, 49, 58, 68, 63, 51, 47, 47, 56, 65, 72, 63, 39, 49, 82, 101, 98, 82, 61, 56, 68, 79, 82, 84, 82, 84, 89, 82, 87, 277, 764, 1253, 1150, 317, -249, 2, 150, -63, -56, 49, 9, -7, 32, 37, 37, 63, 75, 72, 79, 89, 101, 115, 129, 138, 155, 169, 190, 218, 237, 244, 246, 237, 206, 183, 166, 134, 87, 47, 18, -11, -32, -35]"
1714325440634230932,"[-25, -21, -14, -4, 0, 0, -2, -4, 4, 7, -4, -7, 7, 11, 18, 30, 28, 28, 42, 47, 37, 25, 21, 16, 11, 14, 21, 25, 16, 9, 11, 16, 21, 28, 30, 35, 44, 47, 47, 51, 51, 56, 63, 65, 65, 70, 75, 82, 87, 89, 89, 91, 96, 105, 108, 89, 68, 72, 103, 117, 91, 56, 47, 56, 72, 82, 84, 84, 87, 94, 94, 101, 235]"
1714325441195350141,"[649, 1133, 1147, 439, -216, -68, 185, 14, -58, 47, 42, 18, 54, 61, 54, 82, 103, 101, 103, 112, 112, 117, 138, 159, 171, 183, 206, 239, 265, 277, 275, 272, 275, 261, 230, 188, 136, 89, 63, 47, 32, 21, 14, 16, 23, 28, 35, 42, 18, -2, 11, 23, 7, 4, 14, 16, 28, 37, 28, 21, 23, 28, 35, 39, 39, 42, 37, 37, 42, 47, 56, 56, 39]"
1714325441756459172,"[25, 28, 25, 18, 14, 4, 4, 18, 23, 28, 37, 35, 37, 47, 35, 16, 0, -14, -2, 16, 18, 16, 18, 16, 11, 18, 185, 653, 1147, 1084, 291, -312, -84, 127, -61, -87, 21, -2, -18, 23, 16, -18, -18, -9, 0, 9, 21, 30, 51, 75, 94, 112, 134, 155, 183, 209, 223, 228, 225, 216, 199, 166, 122, 72, 32, 4, -11, -14, -16, -18, -16, -14, -4]"
1714325442317588555,"[4, 2, -2, -7, -2, 11, 18, 18, 4, 7, 25, 28, 37, 44, 44, 49, 51, 54, 63, 58, 58, 61, 61, 58, 47, 39, 44, 47, 47, 49, 54, 51, 49, 56, 32, 7, 18, 28, 16, 9, 4, 0, -7, -7, 2, 4, 7, 11, 16, 21, 25, 30, 30, 30, 39, 51, 72, 89, 84, 70, 54, 49, 61, 65, 65, 68, 61, 61, 68, 56, 47, 239, 766]"
1714325442878687416,"[1305, 1220, 348, -286, -54, 108, -103, -94, 7, -39, -51, -4, 2, 7, 28, 37, 35, 47, 61, 72, 87, 94, 105, 124, 138, 150, 162, 162, 152, 155, 176, 183, 169, 148, 108, 70, 44, 21, 0, -18, -28, -23, -14, -4, 0, -4, 0, 11, 25, 37, 37, 37, 25, 25, 42, 47, 42, 23, 11, 28, 39, 44, 44, 35, 39, 51, 49, 39, 30, 14, 0, 7, 25]"
1714325443439796451,"[18, 16, 16, 14, 25, 35, 37, 30, 2, -2, 18, 25, 32, 32, 28, 28, 23, 18, 30, 42, 25, 2, 18, 37, 39, 42, 44, 54, 63, 70, 79, 75, 70, 82, 91, 101, 105, 101, 96, 105, 127, 152, 152, 127, 105, 105, 112, 112, 98, 82, 82, 94, 94, 84, 98, 296, 764, 1194, 1044, 246, -251, 11, 159, -25, -14, 75, 30, 14, 51, 58, 61, 79, 82]"
1714325444000915656,"[75, 87, 101, 110, 127, 136, 136, 138, 141, 152, 166, 164, 159, 152, 134, 129, 131, 105, 65, 32, 7, -16, -32, -61, -82, -84, -87, -91, -82, -72, -70, -61, -44, -35, -30, -23, -11, -4, 0, -2, -9, -2, 9, 14, 21, 32, 32, 35, 42, 42, 44, 56, 56, 54, 61, 68, 72, 75, 77, 77, 79, 87, 89, 89, 89, 94, 96, 96, 101, 105, 98, 87, 79]"
1714325444562014517,"[79, 87, 87, 89, 96, 87, 58, 47, 44, 37, 39, 54, 56, 56, 63, 68, 75, 82, 79, 79, 82, 94, 119, 138, 127, 110, 98, 94, 98, 103, 89, 75, 82, 91, 94, 72, 82, 333, 898, 1371, 1119, 192, -256, 56, 129, -68, -23, 39, -21, -21, 18, 16, 25, 47, 44, 42, 54, 68, 82, 91, 98, 103, 94, 96, 115, 129, 141, 150, 162, 171, 174, 164, 115]"
1714325445123113378,"[51, 23, 7, -25, -51, -75, -101, -98, -75, -61, -58, -58, -51, -32, -18, -7, 0, 0, 9, 25, 35, 30, 21, 18, 25, 37, 47, 58, 58, 49, 58, 70, 72, 79, 84, 77, 84, 98, 103, 112, 115, 101, 105, 127, 138, 138, 134, 127, 129, 143, 150, 152, 152, 136, 124, 131, 143, 141, 131, 127, 131, 138, 138, 143, 124, 96, 98, 117, 117, 112, 108, 103, 108]"
1714325445684242757,"[119, 134, 148, 143, 122, 112, 112, 110, 98, 79, 75, 89, 84, 68, 58, 61, 225, 674, 1110, 973, 202, -293, -39, 122, -51, -47, 35, -7, -16, 32, 32, 16, 21, 16, 7, 18, 37, 44, 47, 58, 75, 96, 119, 145, 159, 159, 171, 188, 192, 185, 171, 150, 117, 79, 49, 21, -16, -58, -79, -65, -54, -54, -49, -35, -28, -21, -9, -2, 2, 11, 21, 30, 42]"
1714325446245341622,"[44, 49, 51, 44, 32, 30, 23, 14, 25, 32, 30, 35, 42, 47, 51, 54, 61, 68, 65, 68, 75, 75, 82, 89, 84, 84, 91, 91, 91, 96, 96, 103, 110, 108, 108, 110, 103, 103, 108, 112, 115, 117, 112, 105, 103, 108, 108, 103, 110, 117, 91, 63, 58, 54, 51, 70, 79, 68, 51, 47, 47, 32, 79, 428, 1032, 1312, 752, -145, -284, 58, 2, -145, -39]"
1714325446806450657,"[7, -47, -35, 0, 11, 28, 47, 49, 47, 44, 44, 54, 75, 101, 117, 129, 155, 188, 206, 218, 232, 246, 251, 254, 242, 206, 162, 105, 61, 49, 39, 18, 4, 9, 23, 32, 37, 47, 51, 49, 58, 56, 39, 39, 51, 54, 61, 75, 82, 82, 75, 75, 84, 89, 84, 79, 68, 65, 65, 54, 49, 51, 44, 44, 56, 58, 58, 58, 54, 56, 63, 70, 72]"
1714325447367569862,"[65, 58, 65, 75, 77, 84, 79, 63, 68, 87, 91, 87, 65, 47, 49, 47, 35, 30, 28, 35, 63, 75, 49, 28, 23, 28, 35, 42, 47, 47, 30, 18, 11, 25, 263, 792, 1182, 846, -49, -395, -37, 21, -181, -122, -39, -82, -68, -28, -37, -44, -32, -18, -4, 2, 7, 23, 47, 65, 82, 98, 115, 138, 164, 190, 206, 214, 211, 206, 199, 183, 145, 94, 54]"
1714325447928668723,"[25, 2, -9, -21, -30, -30, -21, -14, -16, -44, -68, -51, -30, -25, -14, -2, 0, 7, 18, 30, 39, 39, 39, 47, 49, 58, 63, 44, 23, 25, 39, 44, 49, 49, 51, 54, 56, 61, 65, 65, 58, 47, 42, 54, 58, 51, 58, 68, 70, 75, 77, 79, 91, 94, 89, 94, 98, 98, 103, 108, 101, 103, 119, 134, 148, 152, 127, 98, 96, 103, 108, 103, 84]"
1714325448489798102,"[65, 58, 70, 77, 103, 331, 811, 1126, 778, -28, -315, 32, 108, -84, -47, 21, -37, -49, -7, -7, -25, -28, -18, -4, 7, 21, 35, 51, 70, 87, 103, 119, 138, 164, 185, 190, 190, 197, 199, 188, 159, 117, 68, 35, 11, -11, -25, -32, -39, -35, -23, -14, -7, -2, 2, 14, 32, 44, 30, 28, 44, 58, 61, 65, 58, 39, 37, 56, 65, 68, 68, 61, 61]"
1714325449050896963,"[72, 82, 79, 68, 49, 44, 63, 70, 65, 68, 63, 63, 75, 65, 37, 32, 56, 82, 94, 79, 63, 56, 44, 32, 37, 49, 54, 51, 51, 56, 58, 105, 371, 863, 1157, 780, -37, -289, 72, 117, -65, 0, 72, 25, 28, 58, 49, 58, 87, 94, 94, 103, 110, 119, 122, 117, 124, 136, 157, 188, 214, 232, 242, 237, 225, 214, 192, 157, 101, 30, -21, -56, -82]"
1714325449612026346,"[-89, -91, -103, -103, -89, -91, -122, -145, -138, -117, -101, -84, -68, -58, -61, -61, -44, -30, -23, -16, -11, -9, 2, 11, 9, 4, 9, 18, 25, 32, 37, 37, 42, 44, 49, 56, 61, 63, 61, 63, 70, 82, 79, 75, 79, 75, 61, 68, 94, 112, 101, 77, 70, 75, 72, 77, 89, 91, 91, 94, 91, 89, 105, 319, 837, 1267, 1008, 145, -275, 44, 157, -51, -42]"
1714325450173125207,"[37, 0, -7, 37, 47, 32, 42, 61, 65, 61, 56, 56, 77, 98, 108, 127, 150, 171, 202, 221, 228, 230, 228, 223, 211, 183, 136, 89, 51, 23, 4, -11, -25, -42, -47, -39, -32, -44, -56, -47, -35, -28, -11, 0, 2, 4, 11, 14, 9, 7, -2, -16, -14, -2, 0, 0, -4, -7, -2, 4, 11, 14, 11, 11, 4, -11, -14, 2, 9, 0, -2, 4, 11]"
1714325450734254586,"[16, 16, 18, 25, 35, 39, 39, 23, 7, 18, 37, 44, 44, 42, 44, 54, 58, 65, 79, 89, 96, 101, 87, 70, 68, 65, 63, 68, 63, 51, 56, 51, 35, 72, 350, 889, 1279, 947, 70, -254, 84, 122, -63, -9, 54, 9, 23, 58, 47, 39, 61, 75, 79, 91, 94, 94, 103, 101, 96, 119, 136, 136, 164, 199, 211, 214, 211, 202, 197, 185, 150, 110, 68]"
1714325451295353447,"[35, 16, 9, 4, 2, -4, -14, -16, -7, 7, -4, -23, -21, 0, 11, 16, 21, 18, 18, 16, 9, 2, -2, -9, -16, -21, -11, -2, -7, -11, -9, -2, 9, 16, 16, 18, 23, 30, 39, 42, 42, 44, 49, 56, 63, 65, 65, 68, 72, 72, 54, 21, 14, 30, 37, 42, 51, 56, 54, 56, 61, 70, 82, 82, 79, 87, 91, 96, 96, 91, 98, 122, 138]"
1714325451856482826,"[141, 127, 103, 101, 110, 108, 108, 101, 82, 77, 77, 44, 39, 239, 724, 1206, 1107, 286, -272, -18, 148, -44, -35, 61, 21, 2, 44, 56, 56, 70, 79, 84, 91, 110, 124, 127, 136, 152, 166, 190, 211, 225, 239, 235, 223, 235, 242, 228, 202, 166, 119, 75, 39, 14, -9, -21, -18, -9, -7, -7, -4, 2, 11, 21, 28, 23, 11, 9, 9, 7, 9, 14, 11]"
1714325452417581687,"[9, 9, 4, 4, 0, -18, -25, -7, 9, 4, 2, 9, 14, 23, 35, 37, 32, 32, 42, 56, 63, 61, 56, 56, 65, 77, 82, 82, 79, 79, 84, 91, 96, 89, 63, 49, 42, 49, 77, 96, 75, 56, 56, 65, 72, 75, 68, 70, 82, 91, 94, 84, 115, 357, 825, 1143, 837, 61, -244, 75, 150, -16, 30, 89, 37, 37, 63, 58, 68, 77, 72, 82, 103]"
1714325452978711070,"[115, 124, 131, 134, 148, 176, 199, 216, 211, 204, 223, 242, 237, 223, 199, 166, 134, 96, 58, 28, 2, -25, -39, -35, -35, -51, -58, -49, -49, -70, -72, -49, -47, -49, -32, -14, -14, -23, -28, -30, -30, -18, -11, -11, -14, -11, -4, 2, 9, 11, 7, 7, 16, 23, 25, 23, 16, 4, 7, 23, 28, 25, 30, 35, 42, 51, 56, 54, 56, 61, 68, 75, 75]"
1714325453539809931,"[70, 75, 91, 110, 127, 122, 98, 82, 79, 87, 91, 75, 58, 65, 72, 63, 42, 44, 254, 754, 1204, 1016, 157, -348, -51, 94, -101, -77, 18, -25, -28, 18, 21, 21, 42, 49, 54, 70, 79, 91, 105, 115, 131, 152, 169, 190, 211, 218, 209, 197, 197, 197, 178, 150, 122, 79, 37, 9, -11, -30, -30, -28, -30, -35, -37, -37, -37, -39, -35, -28, -23, -16, -2]"
1714325454100924053,"[4, 4, 7, 14, 21, 30, 25, 4, -14, -18, -9, 2, 4, 7, 11, -2, -18, -4, 11, 7, 9, 18, 28, 37, 42, 44, 47, 54, 63, 68, 72, 70, 68, 75, 84, 91, 91, 94, 94, 84, 82, 91, 96, 89, 87, 96, 105, 110, 110, 101, 98, 117, 141, 157, 152, 127, 105, 108, 117, 119, 119, 112, 110, 117, 124, 115, 110, 272, 738, 1227, 1145, 331, -263]"
1714325454662038171,"[-30, 157, -30, -32, 68, 16, -37, -23, -35, -44, -16, -4, -11, 4, 28, 39, 56, 70, 75, 94, 124, 138, 145, 152, 150, 150, 162, 164, 157, 136, 89, 39, 16, -4, -32, -54, -68, -68, -54, -44, -42, -39, -35, -18, -7, 2, 14, 11, 11, 25, 42, 49, 54, 54, 51, 58, 70, 75, 70, 65, 70, 70, 61, 58, 63, 58, 56, 65, 79, 82, 77, 77, 82]"
1714325455223167550,"[77, 54, 39, 51, 54, 49, 61, 77, 70, 49, 47, 61, 63, 68, 77, 75, 72, 82, 91, 98, 103, 94, 79, 82, 96, 103, 101, 101, 112, 134, 150, 143, 122, 108, 108, 112, 115, 122, 119, 117, 124, 124, 110, 152, 420, 919, 1246, 896, 68, -218, 110, 136, -58, -14, 42, 0, 11, 44, 39, 47, 70, 70, 70, 87, 94, 89, 77, 58, 58, 84, 108, 119, 141]"
1714325455784266411,"[166, 176, 183, 190, 181, 162, 127, 75, 39, 14, -16, -42, -65, -79, -68, -61, -58, -49, -39, -37, -23, -9, -2, 2, 9, 18, 35, 42, 44, 51, 54, 54, 68, 72, 70, 70, 75, 79, 82, 84, 82, 79, 79, 84, 77, 61, 63, 70, 70, 77, 89, 94, 87, 79, 84, 94, 101, 96, 84, 75, 91, 115, 105, 79, 65, 65, 72, 82, 89, 91, 84, 84, 87]"
1714325456345395794,"[84, 127, 395, 874, 1180, 825, 2, -270, 72, 96, -98, -25, 51, 0, 4, 39, 35, 44, 70, 79, 79, 82, 91, 112, 127, 141, 155, 164, 185, 209, 221, 232, 239, 235, 228, 211, 178, 145, 101, 39, 2, -9, -30, -44, -56, -75, -77, -70, -75, -72, -65, -84, -101, -79, -58, -56, -51, -44, -32, -18, -7, -2, -4, -2, 7, 16, 18, 9, -7, -7, 7, 14, 21]"
1714325456906494655,"[25, 23, 23, 35, 42, 44, 44, 42, 42, 51, 58, 63, 47, 23, 28, 44, 49, 54, 58, 56, 58, 65, 75, 77, 75, 72, 63, 54, 61, 75, 84, 98, 110, 103, 89, 79, 77, 79, 84, 94, 96, 96, 98, 87, 51, 89, 435, 1016, 1314, 820, -70, -244, 108, 58, -103, -7, 30, -18, 0, 14, 2, 21, 39, 44, 56, 68, 75, 87, 98, 103, 110, 122, 143]"
1714325457467624034,"[164, 183, 204, 216, 216, 218, 218, 202, 174, 129, 65, 18, -11, -44, -68, -79, -84, -87, -96, -91, -75, -65, -61, -47, -37, -32, -21, -11, -7, 4, 14, 14, 18, 25, 30, 37, 28, 2, -2, 14, 16, 21, 28, 32, 35, 39, 49, 56, 58, 49, 35, 39, 54, 58, 63, 65, 65, 70, 77, 87, 89, 84, 82, 84, 94, 98, 98, 91, 72, 68, 96, 138, 143]"
1714325458028743243,"[119, 110, 117, 119, 122, 119, 110, 94, 63, 47, 72, 96, 101, 101, 98, 84, 77, 82, 79, 77, 89, 98, 96, 96, 87, 72, 169, 552, 1095, 1265, 635, -181, -176, 134, 7, -110, -11, 0, -32, 2, 14, -7, 0, 21, 30, 39, 47, 42, 39, 72, 115, 119, 112, 112, 117, 145, 174, 150, 145, 176, 199, 228, 211, 141, 94, 54, 11, -2, 4, -2, -9, -9, -23]"
1714325458589852274,"[-32, -16, 0, 4, 2, 9, 23, 35, 44, 47, 28, 14, 35, 51, 49, 54, 56, 51, 58, 72, 72, 51, 14, 9, 44, 70, 58, 42, 61, 82, 77, 70, 65, 63, 65, 70, 79, 91, 94, 94, 94, 89, 91, 101, 103, 101, 101, 98, 110, 124, 115, 103, 117, 141, 155, 150, 129, 115, 117, 117, 117, 127, 138, 136, 115, 110, 115, 148, 388, 867, 1187, 867, 82]"
1714325459150981657,"[-223, 91, 159, -16, 23, 94, 47, 35, 51, 51, 49, 54, 58, 58, 42, 39, 56, 75, 94, 110, 131, 152, 157, 150, 176, 223, 223, 188, 171, 148, 108, 70, 30, -7, -39, -63, -77, -84, -75, -70, -72, -65, -51, -49, -39, -23, -18, -11, -4, 4, 16, 25, 25, 30, 35, 25, 28, 37, 42, 44, 39, 37, 47, 54, 51, 51, 49, 49, 61, 65, 58, 56, 61]"
1714325459712080518,"[65, 70, 70, 68, 58, 39, 28, 14, 2, 16, 25, 28, 51, 68, 47, 14, 4, 14, 23, 32, 37, 37, 37, 42, 49, 47, 63, 279, 780, 1213, 990, 134, -301, 9, 115, -75, -35, 49, 0, -11, 25, 30, 35, 61, 70, 63, 56, 68, 89, 105, 112, 119, 134, 159, 185, 209, 230, 235, 235, 237, 223, 197, 169, 117, 65, 32, 9, -16, -35, -49, -49, -37, -42]"
1714325460273209897,"[-68, -82, -77, -75, -82, -91, -91, -84, -84, -77, -58, -47, -42, -51, -70, -61, -42, -35, -25, -25, -35, -28, -9, -2, -2, -2, -4, 4, 16, 25, 28, 25, 21, 25, 39, 51, 51, 35, 25, 37, 51, 56, 56, 54, 54, 61, 70, 75, 75, 70, 70, 79, 87, 89, 91, 87, 82, 87, 101, 115, 127, 127, 108, 91, 89, 87, 68, 49, 49, 44, 37, 44, 42]"
1714325460834308758,"[30, 171, 632, 1182, 1220, 451, -265, -112, 138, -32, -89, -2, -30, -51, -7, 9, 2, 14, 18, 14, 28, 42, 47, 54, 68, 84, 101, 115, 122, 138, 166, 185, 197, 192, 174, 162, 141, 98, 58, 25, -9, -35, -51, -63, -68, -61, -58, -51, -42, -35, -23, -11, -9, -2, 9, 14, 21, 32, 25, 2, -16, -16, -2, 9, 9, 11, 21, 28, 30, 30, 32, 39, 47]"
1714325461395438137,"[51, 61, 61, 61, 70, 75, 72, 65, 56, 51, 61, 63, 61, 68, 72, 70, 79, 89, 79, 63, 58, 72, 82, 82, 84, 87, 82, 89, 103, 108, 101, 98, 105, 105, 115, 134, 145, 141, 129, 110, 112, 122, 117, 112, 112, 117, 124, 129, 115, 103, 232, 637, 1093, 1110, 425, -258, -138, 136, -4, -72, 23, 11, -23, 11, 32, 21, 23, 39, 54, 65, 77, 84, 87]"
1714325461956536998,"[94, 119, 143, 166, 169, 145, 141, 162, 176, 169, 152, 129, 108, 82, 47, 11, -25, -65, -79, -72, -68, -68, -72, -75, -58, -35, -25, -18, -14, -16, -4, 14, 25, 35, 35, 30, 39, 58, 63, 65, 68, 56, 44, 44, 47, 32, 0, 0, 23, 32, 35, 47, 44, 39, 49, 63, 68, 68, 65, 63, 75, 82, 82, 84, 79, 77, 87, 96, 96, 94, 91, 105, 129]"
1714325462517666381,"[141, 119, 79, 61, 68, 75, 82, 82, 70, 51, 54, 65, 56, 82, 331, 837, 1220, 943, 96, -270, 54, 127, -63, -11, 68, 16, 14, 56, 54, 56, 79, 87, 84, 82, 77, 87, 108, 108, 94, 112, 143, 164, 185, 197, 195, 204, 204, 195, 183, 155, 108, 61, 23, -4, -23, -42, -54, -54, -63, -68, -65, -75, -77, -61, -61, -72, -70, -63, -49, -37, -32, -23, -14]"
1714325463078765242,"[-7, 0, 4, 7, 11, 7, -9, -4, 9, 9, 11, 18, 21, 25, 32, 32, 42, 51, 47, 54, 65, 65, 65, 77, 72, 61, 63, 70, 70, 70, 58, 35, 32, 44, 49, 49, 56, 68, 70, 70, 75, 77, 82, 89, 91, 89, 91, 94, 96, 112, 134, 138, 131, 115, 103, 103, 94, 77, 77, 84, 89, 96, 101, 77, 94, 362, 917, 1345, 1046, 129, -263, 68, 127]"
1714325463639894621,"[-63, -9, 54, -2, 7, 54, 51, 49, 51, 35, 37, 51, 49, 56, 65, 65, 68, 89, 119, 141, 150, 166, 174, 157, 152, 162, 138, 96, 68, 30, -9, -39, -72, -96, -91, -84, -82, -77, -79, -72, -54, -37, -30, -28, -28, -14, 2, -2, -14, -11, -7, -2, 11, 23, 30, 28, 25, 32, 37, 44, 56, 54, 44, 51, 65, 70, 70, 70, 65, 70, 79, 89, 94]"
1714325464200993482,"[87, 79, 87, 96, 98, 103, 98, 77, 79, 94, 98, 87, 65, 61, 63, 39, 25, 42, 47, 44, 51, 63, 70, 72, 68, 68, 79, 91, 103, 119, 127, 115, 96, 89, 96, 96, 91, 94, 96, 84, 82, 79, 70, 185, 595, 1100, 1164, 479, -242, -143, 143, 0, -72, 30, 21, -14, 28, 51, 32, 28, 32, 23, 23, 37, 44, 49, 65, 79, 91, 115, 134, 141, 155]"
1714325464762122861,"[176, 192, 192, 183, 176, 166, 119, 47, -9, -49, -87, -110, -112, -112, -108, -103, -94, -82, -70, -61, -49, -39, -30, -21, -16, -2, 14, 16, 21, 21, 14, 16, 21, 25, 35, 39, 37, 42, 49, 44, 47, 54, 51, 56, 68, 70, 72, 75, 84, 87, 84, 87, 89, 87, 82, 87, 89, 89, 96, 98, 94, 89, 82, 82, 94, 101, 101, 96, 89, 98, 108, 101, 87]"
1714325465323221722,"[82, 91, 98, 75, 37, 23, 23, 25, 51, 79, 65, 49, 54, 42, 77, 338, 823, 1185, 933, 105, -317, -23, 63, -131, -91, -7, -54, -54, -2, 2, -2, 21, 47, 42, 28, 28, 30, 39, 63, 82, 94, 105, 122, 150, 171, 188, 197, 192, 190, 190, 174, 136, 89, 44, 18, 2, -11, -14, -16, -25, -21, -4, 7, 11, 18, 7, -9, 2, 28, 35, 32, 37, 42]"
1714325465884351101,"[51, 68, 72, 65, 63, 61, 63, 72, 79, 61, 30, 28, 30, 28, 37, 37, 25, 35, 49, 54, 58, 63, 54, 58, 82, 94, 84, 77, 75, 79, 87, 96, 98, 91, 89, 105, 112, 105, 105, 101, 96, 115, 141, 148, 131, 108, 87, 79, 87, 96, 94, 84, 87, 94, 101, 96, 77, 136, 446, 931, 1171, 717, -94, -251, 82, 56, -87, -16, 7, -39, -14, 18, 18]"
1714325466445455053,"[25, 39, 35, 25, 30, 49, 56, 47, 49, 58, 70, 87, 87, 82, 105, 152, 166, 148, 138, 143, 136, 103, 61, 28, -11, -42, -47, -54, -49, -21, -16, -18, -7, -4, -7, -14, -23, -14, 4, 7, 11, 25, 16, 25, 56, 54, 49, 65, 65, 75, 82, 37, 4, 44, 72, 58, 49, 51, 44, 42, 35, 54, 103, 101, 72, 79, 82, 58, 47, 56, 63, 61, 68]"
1714325467006579345,"[75, 72, 70, 75, 82, 79, 72, 84, 115, 127, 122, 108, 96, 89, 82, 70, 54, 56, 72, 72, 65, 56, 56, 169, 517, 928, 973, 416, -197, -148, 110, 0, -89, 7, 11, -23, 18, 35, 16, 32, 56, 70, 101, 115, 87, 51, 54, 77, 82, 89, 105, 115, 138, 166, 171, 169, 166, 155, 127, 101, 79, 42, -2, -25, -30, -39, -28, 0, -14, -35, -16, 7, 14]"
1714325467567693467,"[18, 21, 28, 44, 65, 79, 65, 37, 42, 68, 72, 75, 72, 47, 49, 96, 108, 61, 44, 58, 58, 51, 56, 70, 63, 51, 61, 72, 77, 77, 75, 70, 70, 84, 84, 82, 82, 58, 37, 54, 84, 96, 75, 51, 54, 54, 49, 56, 51, 35, 30, 42, 54, 44, 37, 141, 472, 858, 898, 395, -171, -141, 124, 58, -23, 54, 58, 23, 56, 79, 72, 75, 82]"
1714325468128807585,"[82, 91, 105, 112, 119, 124, 129, 143, 145, 136, 136, 143, 152, 169, 181, 183, 174, 155, 127, 91, 61, 30, 2, -25, -47, -56, -61, -68, -65, -70, -94, -96, -68, -54, -54, -42, -28, -18, -4, 7, 0, -7, -2, 9, 16, 16, 16, 18, 25, 32, 39, 39, 42, 51, 54, 56, 63, 63, 65, 72, 75, 79, 84, 82, 87, 96, 96, 103, 124, 136, 141, 129, 98]"
1714325468689931881,"[70, 70, 75, 75, 82, 82, 82, 75, 58, 54, 87, 272, 691, 1053, 893, 176, -275, -21, 157, -7, -16, 77, 37, -7, 16, 32, 35, 56, 72, 72, 79, 89, 89, 103, 124, 134, 148, 169, 190, 216, 232, 237, 239, 244, 246, 239, 214, 171, 124, 82, 51, 32, 21, 23, 14, -7, 14, 49, 42, 32, 32, 25, 28, 18, -4, -2, 23, 42, 42, 61, 87, 75, 51]"
1714325469251035825,"[65, 77, 54, 32, 23, 0, -7, 16, 21, 9, 7, 9, 14, 21, 23, 7, -23, -28, -4, 7, 9, 14, 7, -4, 2, 25, 49, 63, 65, 61, 47, 39, 49, 54, 44, 49, 61, 72, 77, 68, 51, 96, 390, 917, 1255, 893, 37, -249, 94, 119, -54, 11, 56, 2, 16, 44, 37, 42, 56, 65, 79, 101, 110, 110, 117, 138, 162, 178, 192, 202, 214, 239, 263]"
1714325469812165208,"[265, 261, 254, 230, 202, 169, 127, 87, 37, -7, -9, 2, 0, -4, -14, -11, 2, 16, 23, 28, 30, 35, 49, 58, 61, 47, 25, 25, 47, 51, 51, 44, 30, 28, 37, 44, 44, 42, 44, 49, 51, 56, 58, 58, 56, 44, 25, 18, 21, 9, -4, 0, 11, 16, 21, 21, 21, 23, 30, 39, 37, 35, 39, 44, 56, 79, 94, 96, 87, 68, 58, 63, 70]"
1714325470373264069,"[65, 44, 28, 32, 37, 11, -2, 79, 390, 877, 1117, 663, -124, -270, 58, 28, -112, -30, 11, -28, -7, 25, 25, 32, 54, 68, 72, 84, 96, 103, 119, 134, 148, 169, 185, 199, 214, 214, 214, 225, 230, 223, 216, 190, 145, 105, 77, 51, 30, 18, 14, 11, 11, 14, 28, 37, 37, 39, 47, 54, 61, 68, 68, 70, 72, 77, 63, 30, 18, 18, 14, 21, 32]"
1714325470934362930,"[30, 14, 0, 7, 21, 23, 18, 11, -4, -14, 0, 16, 21, 18, 14, 21, 28, 23, 11, 2, -2, 7, 14, 16, 21, 23, 18, 14, 7, 14, 23, 18, 28, 54, 68, 75, 70, 47, 37, 49, 63, 70, 72, 58, 58, 82, 87, 96, 258, 665, 1065, 997, 308, -251, -65, 159, 11, -14, 75, 14, -47, -7, 16, 14, 37, 61, 56, 56, 77, 98, 108, 124, 141]"
1714325471495492309,"[152, 176, 204, 228, 246, 256, 251, 251, 256, 244, 214, 152, 84, 51, 35, 7, -9, -21, -39, -49, -37, -25, -25, -21, -14, 0, 11, 18, 28, 32, 37, 49, 58, 63, 68, 70, 70, 75, 82, 82, 63, 47, 51, 58, 56, 61, 61, 51, 61, 77, 61, 21, -7, -2, 0, -9, -7, -9, -21, -9, 16, 32, 28, 7, -7, -4, 2, 7, 18, 21, 18, 23, 28]"
1714325472056591170,"[21, 47, 272, 773, 1204, 987, 129, -322, -21, 72, -136, -101, -4, -47, -51, -4, -2, -4, 23, 39, 44, 58, 70, 77, 94, 119, 134, 150, 181, 202, 223, 249, 263, 265, 268, 258, 237, 206, 155, 105, 70, 25, -11, -30, -51, -65, -51, -37, -35, -25, -18, -11, -2, 4, 14, 23, 28, 39, 51, 51, 56, 61, 63, 68, 72, 75, 77, 77, 75, 79, 84, 75, 61]"
1714325472617720549,"[56, 47, 42, 49, 49, 44, 49, 56, 61, 63, 58, 47, 32, 28, 28, 21, 9, 2, 2, 11, 16, 16, 14, 11, 18, 42, 65, 75, 65, 44, 32, 37, 42, 30, 21, 21, 4, -9, 2, 2, 35, 336, 914, 1288, 886, -25, -315, 30, 44, -127, -44, 16, -42, -32, 14, 18, 25, 42, 42, 44, 65, 82, 91, 103, 110, 112, 129, 159, 188, 206, 221, 239, 254]"
1714325473178819414,"[254, 249, 225, 166, 108, 79, 51, 18, -2, -21, -28, -18, -7, -2, 0, 0, 7, 23, 30, 37, 39, 37, 44, 54, 44, 37, 42, 32, 16, 0, -11, -4, 0, -9, 0, 14, 18, 21, 18, 16, 25, 35, 28, 18, 14, 0, -4, 4, 11, 11, 11, 9, 16, 25, 32, 32, 18, 9, 18, 30, 35, 37, 37, 37, 42, 51, 58, 56, 54, 61, 68, 72, 75]"
1714325473739948793,"[75, 75, 75, 79, 84, 96, 110, 117, 105, 89, 87, 84, 63, 51, 58, 51, 44, 54, 51, 28, 68, 355, 881, 1258, 928, 21, -333, 14, 58, -134, -68, 0, -51, -35, 9, 2, 2, 25, 30, 37, 58, 65, 70, 87, 101, 115, 136, 143, 152, 178, 197, 206, 218, 223, 221, 209, 188, 152, 101, 49, 23, 7, -16, -23, -18, -21, -18, -9, -7, 0, 11, 14, 14]"
1714325474301047654,"[16, 14, 11, 4, -4, 2, -7, -23, -18, -21, -37, -23, -7, -14, -23, -35, -42, -23, -14, -18, -16, -7, 0, 9, 16, 18, 25, 28, 35, 49, 54, 49, 51, 56, 63, 72, 75, 70, 61, 56, 63, 75, 77, 75, 75, 77, 84, 91, 91, 89, 87, 91, 96, 101, 101, 98, 96, 98, 105, 112, 112, 110, 103, 108, 129, 150, 155, 138, 117, 105, 91, 79, 84]"
1714325474862166863,"[82, 77, 87, 96, 89, 70, 96, 341, 804, 1124, 816, 9, -310, 4, 54, -115, -49, 11, -44, -37, 11, 14, 18, 32, 23, 16, 37, 42, 21, 9, 44, 96, 108, 112, 136, 148, 155, 171, 176, 164, 169, 162, 110, 72, 49, 9, -14, -25, -61, -70, -56, -58, -63, -61, -63, -56, -44, -23, 4, -2, -16, -2, 0, -2, 11, 11, 7, 18, 35, 37, 35, 25, 23]"
1714325475423275894,"[35, 21, -4, 0, -4, -18, 21, 65, 54, 25, 14, 14, 18, 30, 42, 37, 30, 32, 49, 61, 51, 39, 39, 39, 42, 56, 77, 79, 65, 65, 72, 79, 87, 82, 84, 89, 87, 94, 98, 96, 91, 89, 103, 115, 110, 110, 117, 131, 143, 138, 124, 103, 89, 72, 75, 91, 89, 82, 89, 84, 72, 155, 479, 961, 1166, 660, -157, -275, 68, 21, -122, -28, 9]"
1714325475984405277,"[-39, -14, 23, 14, 16, 39, 35, 11, 9, 21, 18, 16, 21, 32, 61, 89, 105, 127, 150, 164, 171, 178, 174, 162, 138, 98, 61, 25, -11, -35, -44, -51, -49, -42, -37, -30, -21, -16, -4, 2, 7, 16, 21, 14, 9, 25, 32, 30, 35, 47, 56, 58, 56, 56, 56, 61, 68, 68, 56, 30, 16, 30, 44, 44, 44, 47, 49, 54, 61, 65, 65, 65, 68]"
1714325476545504138,"[75, 82, 70, 47, 28, 25, 39, 49, 49, 49, 49, 54, 63, 72, 72, 68, 77, 98, 108, 103, 87, 65, 51, 56, 70, 75, 75, 68, 63, 70, 72, 77, 218, 618, 1065, 1074, 378, -305, -171, 91, -72, -127, -9, -23, -56, -21, -7, -7, 14, 32, 35, 25, 14, 23, 51, 70, 79, 89, 110, 143, 174, 195, 209, 211, 218, 225, 214, 181, 141, 94, 54, 28, 7]"
1714325477106633517,"[-11, -25, -37, -30, -18, -11, -4, -4, -7, 4, 21, 28, 32, 18, 7, 25, 42, 47, 51, 49, 47, 58, 68, 70, 75, 70, 54, 51, 65, 72, 70, 65, 63, 68, 79, 84, 82, 77, 77, 87, 91, 96, 94, 89, 70, 49, 54, 68, 63, 58, 65, 72, 77, 79, 77, 77, 77, 65, 47, 42, 51, 49, 44, 51, 70, 87, 96, 94, 77, 63, 63, 63, 51]"
1714325477667732378,"[42, 39, 35, 28, 25, 16, 35, 246, 724, 1147, 959, 112, -366, -61, 72, -119, -98, -21, -70, -70, -18, -14, -21, 0, 14, 18, 32, 49, 56, 68, 87, 101, 117, 141, 157, 178, 183, 169, 174, 192, 188, 178, 171, 138, 94, 56, 18, -7, -28, -54, -63, -51, -47, -42, -32, -25, -16, -7, -4, 7, 16, 21, 28, 32, 42, 49, 54, 54, 58, 61, 63, 70, 72]"
1714325478228851587,"[65, 63, 65, 68, 70, 70, 68, 68, 61, 56, 63, 70, 65, 54, 37, 44, 58, 56, 54, 56, 58, 65, 75, 77, 72, 70, 72, 84, 87, 72, 42, 28, 39, 49, 54, 70, 84, 84, 72, 54, 30, 16, 16, 18, 30, 44, 49, 47, 39, 32, 84, 350, 823, 1126, 785, -30, -338, -4, 58, -122, -77, -9, -49, -35, 9, 2, -2, 16, 32, 44, 56, 58, 51]"
1714325478789960618,"[63, 89, 112, 134, 148, 141, 157, 197, 221, 228, 228, 211, 199, 183, 145, 103, 61, 14, -11, -21, -28, -35, -51, -68, -51, -30, -30, -23, -16, -18, -11, -9, -9, 2, 9, 7, 18, 37, 44, 47, 44, 42, 49, 61, 65, 63, 56, 54, 63, 72, 72, 75, 72, 65, 72, 82, 82, 82, 79, 77, 84, 89, 84, 77, 82, 101, 115, 112, 96, 75, 68, 72, 77]"
1714325479351059479,"[84, 89, 84, 79, 79, 75, 89, 289, 745, 1147, 971, 164, -310, -18, 119, -98, -96, 9, -21, -37, 2, 2, -18, -18, -7, 0, 9, 21, 32, 47, 68, 84, 98, 124, 148, 171, 199, 216, 211, 204, 190, 162, 124, 82, 32, -11, -47, -68, -82, -91, -89, -82, -79, -77, -82, -89, -75, -61, -56, -47, -32, -28, -18, -4, 2, 9, 16, 18, 25, 32, 32, 35, 39]"
1714325479912188862,"[39, 44, 49, 42, 39, 25, 4, -2, -16, -21, -7, 0, -2, -2, -4, -2, 4, 9, 18, 28, 32, 35, 37, 44, 63, 91, 103, 91, 72, 61, 68, 77, 77, 77, 79, 82, 89, 91, 72, 108, 395, 936, 1293, 910, 16, -277, 61, 79, -89, -14, 39, -16, -2, 37, 35, 42, 63, 63, 63, 79, 96, 108, 119, 127, 136, 157, 185, 209, 225, 237, 246, 256, 258]"
1714325480473287723,"[239, 199, 155, 112, 56, -2, -37, -58, -96, -119, -105, -87, -84, -77, -75, -70, -51, -35, -25, -21, -30, -32, -23, -23, -25, -18, -23, -21, -7, 2, 4, 4, 0, 2, 14, 14, 4, -7, -7, 2, 14, 21, 28, 25, 21, 30, 42, 47, 51, 51, 44, 54, 68, 72, 75, 72, 68, 75, 87, 91, 91, 84, 77, 87, 94, 91, 77, 72, 65, 47, 32, 39, 44]"
1714325481034417102,"[39, 42, 54, 63, 70, 70, 54, 47, 202, 651, 1161, 1171, 404, -284, -108, 141, -35, -79, 25, 2, -18, 32, 44, 32, 44, 58, 61, 65, 63, 70, 84, 96, 112, 138, 155, 171, 190, 209, 228, 244, 249, 242, 235, 218, 188, 152, 110, 75, 39, 4, -9, -4, -7, -11, -4, 2, 7, 18, 14, -18, -37, -18, -2, -4, -11, -11, -11, -21, -16, -4, -7, -7, -2]"
1714325481595515963,"[-2, 4, 11, 11, 11, 16, 18, 21, 16, 0, 0, 14, 18, 21, 28, 28, 35, 39, 25, 16, 21, 35, 56, 77, 84, 75, 61, 49, 54, 58, 58, 65, 70, 70, 79, 79, 61, 105, 397, 917, 1234, 825, -21, -242, 103, 101, -63, 16, 65, 16, 25, 18, -11, 7, 35, 32, 42, 58, 72, 84, 98, 108, 124, 152, 178, 197, 216, 232, 244, 256, 263, 256, 237]"
1714325482156645342,"[199, 152, 115, 87, 49, 7, -23, -30, -21, -23, -39, -42, -35, -21, -4, 7, 11, 14, 21, 30, 39, 51, 56, 44, 32, 39, 49, 49, 49, 49, 44, 44, 51, 58, 58, 49, 44, 51, 54, 47, 35, 14, 7, 18, 16, -7, -28, -42, -39, -21, -11, -9, -4, -7, -2, 11, 7, 4, 171, 639, 1112, 1008, 214, -329, -79, 115, -56, -61, 37, 4, -14, 25, 35]"
1714325482717744203,"[25, 30, 39, 42, 37, 39, 44, 65, 115, 124, 94, 134, 216, 232, 223, 242, 232, 209, 202, 181, 155, 131, 79, 28, 16, 4, -7, -7, -18, -30, -21, -9, -18, -30, -25, -7, -14, -32, -32, -21, -14, 4, 16, 16, 16, 18, 21, 30, 37, 39, 35, 30, 37, 44, 39, 42, 54, 49, 44, 51, 56, 47, 49, 75, 91, 87, 68, 39, 14, 18, 30, 30, 32]"
1714325483278848155,"[39, 37, 35, 35, 21, 47, 289, 806, 1201, 865, -32, -364, -23, 14, -171, -108, -39, -87, -79, -39, -39, -35, -16, -9, -14, -2, 16, 30, 37, 30, 28, 61, 96, 112, 136, 162, 171, 178, 188, 178, 164, 136, 91, 51, 25, -2, -21, -28, -28, -23, -18, -16, -7, 0, 7, 11, 4, 2, 16, 25, 30, 35, 39, 44, 54, 61, 63, 65, 61, 58, 65, 68, 70]"
1714325483839972447,"[77, 82, 77, 75, 77, 82, 89, 89, 84, 70, 56, 58, 72, 68, 54, 35, 32, 42, 47, 49, 63, 82, 75, 47, 23, 11, 9, 11, 16, 23, 35, 47, 42, 28, 18, 28, 185, 639, 1143, 1100, 315, -317, -131, 68, -110, -131, -35, -63, -68, -25, -37, -47, -14, 4, 14, 32, 37, 42, 63, 84, 98, 117, 131, 145, 171, 197, 211, 209, 204, 211, 209, 185, 157]"
1714325484401086569,"[115, 65, 37, 25, 11, -4, -30, -58, -51, -25, -16, -9, -2, -4, -14, -21, -9, 7, 0, -2, 9, 16, 18, 28, 30, 30, 49, 56, 47, 44, 49, 49, 47, 54, 68, 63, 68, 65, 47, 49, 65, 65, 61, 65, 75, 77, 84, 89, 82, 77, 84, 94, 96, 98, 91, 87, 84, 79, 77, 77, 75, 75, 77, 87, 105, 124, 115, 70, 70, 96, 77, 47, 44]"
1714325484962200687,"[28, 2, -2, 11, 11, 47, 289, 750, 1112, 846, -7, -378, -44, 25, -157, -103, -32, -82, -68, -16, -16, -16, 4, 16, 23, 39, 56, 70, 75, 70, 70, 98, 131, 143, 162, 188, 197, 206, 218, 218, 211, 190, 150, 112, 82, 56, 39, 18, 11, 18, 16, 9, 25, 37, 37, 49, 63, 61, 63, 68, 58, 49, 56, 68, 70, 75, 79, 82, 82, 84, 87, 82, 63]"
1714325485523299548,"[42, 37, 44, 51, 47, 47, 51, 47, 49, 61, 56, 47, 47, 32, 18, 42, 82, 82, 79, 103, 89, 61, 72, 89, 96, 98, 94, 79, 63, 61, 65, 65, 63, 68, 77, 75, 63, 61, 82, 270, 693, 1077, 921, 152, -324, -42, 127, -68, -72, 25, -2, -21, 7, -7, -14, 9, 23, 39, 61, 56, 61, 89, 105, 117, 138, 136, 119, 148, 195, 204, 202, 206, 199]"
1714325486084428931,"[185, 166, 136, 75, 2, -37, -44, -61, -61, -42, -37, -47, -49, -37, -21, -14, -21, -16, 7, 23, 28, 35, 35, 44, 63, 63, 63, 63, 58, 68, 75, 70, 63, 61, 58, 58, 68, 77, 79, 77, 70, 72, 82, 75, 58, 58, 63, 68, 72, 82, 87, 72, 63, 82, 101, 103, 103, 63, 9, 14, 39, 35, 37, 37, 32, 42, 56, 54, 42, 159, 571, 1067, 1067]"
1714325486645527792,"[326, -310, -145, 68, -98, -124, -23, -68, -117, -72, -39, -39, -21, -2, -7, -2, 21, 44, 58, 68, 82, 105, 122, 143, 174, 195, 204, 204, 202, 199, 197, 183, 150, 105, 47, 0, -28, -49, -54, -44, -35, -23, -21, -23, -18, -9, 4, 16, 16, 18, 16, -4, -4, 11, 21, 28, 32, 32, 39, 44, 32, 42, 70, 70, 51, 51, 42, 11, 11, 70, 117, 82, 42]"
1714325487206636827,"[70, 84, 54, 42, 51, 51, 54, 65, 70, 75, 63, 30, 25, 47, 39, 37, 54, 44, 25, 21, 14, 25, 44, 58, 58, 35, -4, -14, 0, 4, 7, 16, 18, 25, 30, 4, 4, 221, 745, 1234, 1065, 204, -305, -42, 58, -143, -112, -23, -56, -51, -11, -16, -16, 11, 32, 42, 56, 49, 42, 72, 103, 108, 115, 138, 162, 185, 204, 216, 221, 221, 221, 216, 202]"
1714325487767756032,"[164, 112, 77, 58, 35, 23, 16, -7, -30, -25, -4, 4, 11, 11, 7, 9, 14, 9, 11, 16, 18, 28, 30, 21, 18, 21, 16, 23, 35, 35, 32, 28, 28, 39, 42, 42, 39, 11, -11, -2, 0, -7, -4, -7, -7, 4, 11, 14, 2, -11, -2, 18, 25, 32, 35, 25, 28, 44, 56, 56, 54, 49, 54, 61, 65, 79, 101, 108, 108, 98, 84, 82, 82]"
1714325488328854893,"[79, 82, 89, 98, 108, 98, 70, 65, 235, 696, 1166, 1058, 256, -296, -32, 152, -51, -70, 30, 2, -9, 37, 44, 35, 47, 63, 75, 98, 108, 87, 65, 87, 124, 136, 143, 166, 183, 197, 223, 214, 199, 214, 199, 174, 178, 152, 75, 30, 23, 0, -11, -7, -30, -37, -7, 11, 7, 2, 7, 7, -2, 7, 39, 42, 25, 44, 58, 44, 42, 54, 37, 4, -7]"
1714325488889979189,"[0, 11, 7, -2, 4, 4, 2, 2, -9, -16, -9, -2, 0, 4, 7, 7, 9, 16, 30, 42, 35, 14, -7, -11, 25, 68, 68, 70, 65, 35, 21, 28, 42, 47, 42, 44, 51, 42, 11, 32, 246, 682, 1084, 985, 254, -249, -9, 148, -42, -44, 82, 75, 37, 56, 72, 70, 79, 98, 103, 110, 122, 127, 117, 122, 141, 145, 155, 169, 199, 232, 237, 237, 244]"
1714325489451083133,"[237, 228, 206, 159, 103, 51, 4, -23, -32, -35, -30, -28, -39, -39, -21, -25, -44, -39, -14, 7, 11, 4, -11, -23, -7, 16, 21, 18, 16, 18, 25, 25, 25, 28, 23, 25, 28, 25, 14, 4, -4, -21, -14, 4, 9, 16, 9, -11, -7, 28, 65, 58, 28, 16, 14, 32, 70, 77, 61, 47, 37, 42, 47, 42, 25, 39, 77, 75, 68, 65, 79, 315, 811]"
1714325490012212516,"[1173, 891, 68, -277, 47, 122, -58, -39, -7, -70, -58, -2, -9, -23, -7, -2, 9, 37, 58, 70, 70, 77, 103, 122, 152, 183, 188, 197, 221, 232, 230, 235, 221, 176, 138, 101, 61, 44, 21, -11, -9, 2, 7, 9, 7, -4, -7, 11, 21, 16, 25, 44, 54, 58, 63, 61, 44, 37, 51, 58, 54, 49, 42, 47, 56, 65, 65, 54, 47, 54, 63, 58, 28]"
1714325490573311377,"[-14, -28, -18, -16, -35, -37, -23, -16, -11, -4, -2, -4, -23, -25, -7, 4, 7, 2, 9, 35, 49, 63, 70, 58, 49, 39, 44, 54, 58, 61, 58, 58, 58, 49, 56, 214, 663, 1168, 1147, 381, -254, -70, 145, -30, -63, 39, 18, -2, 30, 32, 30, 58, 75, 68, 77, 96, 98, 103, 110, 112, 136, 174, 199, 218, 221, 209, 202, 209, 190, 166, 164, 148, 105]"
1714325491134410238,"[70, 44, 4, -25, -23, -4, -9, -16, -11, -23, -25, -4, -2, -14, -11, -4, 9, 16, 23, 18, 11, 25, 35, 37, 42, 42, 42, 25, 7, 14, 11, -7, -9, -2, 9, 11, 11, 9, 7, 18, 28, 23, 35, 47, 30, 28, 54, 68, 58, 54, 56, 61, 65, 72, 77, 75, 65, 44, 21, 25, 47, 61, 70, 63, 47, 37, 44, 42, 42, 56, 68, 72, 75]"
1714325491695529447,"[63, 54, 162, 536, 1032, 1154, 538, -206, -166, 155, 44, -70, 9, 21, 11, 49, 61, 51, 49, 54, 68, 84, 89, 91, 96, 110, 136, 164, 204, 228, 223, 235, 256, 261, 261, 251, 235, 221, 199, 159, 117, 77, 39, 18, 14, 14, 16, 4, -7, -11, -39, -54, -30, -30, -44, -32, -16, -4, 4, 7, 4, 16, 35, 39, 35, 37, 37, 39, 42, 39, 28, 7, -4]"
1714325492256638478,"[4, 16, 9, 2, 14, 16, 11, 28, 37, 16, 16, 49, 68, 63, 37, 2, -4, 18, 16, 7, 23, 39, 32, 25, 39, 58, 176, 585, 1098, 1110, 385, -258, -98, 148, -14, -65, 47, 37, 2, 39, 51, 25, 14, 14, 9, 18, 39, 49, 63, 87, 98, 115, 143, 164, 190, 211, 223, 235, 235, 218, 202, 188, 152, 103, 61, 25, -2, -16, -21, -23, -28, -49, -44]"
1714325492817767861,"[-25, -16, 18, 39, 4, 2, 4, -25, 4, 44, 44, 61, 56, 32, 44, 56, 44, 42, 47, 47, 44, 44, 51, 58, 49, 32, 35, 37, 35, 37, 37, 39, 39, 23, 14, -2, -25, -14, 0, -11, -18, -4, 2, 7, 11, -4, -25, -21, -18, -18, 2, 14, -4, -4, 21, 16, 39, 345, 919, 1255, 813, -63, -275, 68, 32, -145, -65, -14, -54, -25, 4, -11, 0]"
1714325493378866722,"[35, 42, 42, 42, 30, 39, 68, 84, 96, 112, 131, 157, 190, 209, 216, 214, 214, 214, 204, 181, 134, 79, 39, 9, -18, -25, -23, -37, -61, -58, -35, -23, -25, -23, -9, 7, 16, 23, 30, 30, 35, 42, 51, 65, 58, 44, 54, 68, 68, 68, 72, 68, 70, 75, 77, 68, 44, 28, 32, 44, 49, 49, 47, 49, 56, 63, 63, 65, 63, 56, 56, 58, 51]"
1714325493939996101,"[37, 21, 2, 16, 39, 32, 30, 35, 30, 54, 54, 9, 0, 25, 7, -14, 16, 23, 0, 4, -18, -70, 25, 446, 1016, 1164, 503, -261, -197, 91, -51, -143, -32, -25, -61, -18, 23, 18, 14, 30, 42, 51, 63, 72, 82, 94, 103, 112, 127, 141, 157, 181, 209, 211, 211, 223, 218, 197, 181, 141, 89, 56, 32, 14, 9, 11, 9, 14, 23, 30, 37, 37, 37]"
1714325494501094962,"[47, 51, 56, 68, 70, 58, 47, 49, 61, 56, 37, 37, 49, 25, -16, -23, -11, -9, -11, -11, 2, 21, 23, 23, 28, 30, 32, 35, 39, 39, 25, 9, 7, 14, 21, 23, 25, 16, 2, 0, 7, 14, 16, 21, 30, 35, 39, 51, 54, 47, 58, 82, 94, 96, 87, 70, 63, 65, 72, 77, 79, 84, 87, 77, 72, 103, 310, 780, 1197, 999, 176, -282, 14]"
1714325495062224341,"[148, -39, -25, 54, 25, 18, 14, -23, -23, 9, 25, 32, 42, 49, 61, 79, 101, 115, 129, 150, 178, 204, 223, 235, 242, 237, 230, 223, 199, 148, 84, 44, 28, 9, -7, -14, -21, -21, -7, 7, 14, 14, 9, 11, 23, 37, 56, 63, 54, 51, 63, 70, 63, 54, 44, 49, 63, 65, 65, 65, 54, 44, 47, 51, 51, 51, 44, 39, 35, 23, 18, 23, -2]"
1714325495623323202,"[-28, -14, 0, -2, 2, 0, 4, 28, 49, 61, 37, -11, -21, 7, 16, 11, 18, 23, 30, 32, 18, 2, 25, 232, 705, 1119, 919, 112, -322, -25, 108, -68, -44, 39, -7, -14, 37, 39, 37, 58, 63, 58, 77, 94, 96, 105, 119, 134, 155, 185, 206, 218, 228, 235, 242, 246, 242, 216, 174, 124, 82, 47, 23, 4, -23, -61, -75, -61, -47, -49, -44, -37, -30]"
1714325496184452581,"[-16, 0, 4, 7, 16, 30, 39, 30, 14, 18, 21, 9, 11, 21, 14, 18, 32, 35, 30, 16, 9, 21, 28, 30, 37, 35, 30, 37, 39, 42, 49, 49, 51, 54, 42, 32, 30, 18, 16, 28, 28, 28, 25, 16, 25, 54, 65, 63, 49, 30, 32, 39, 37, 39, 49, 51, 56, 49, 7, 11, 251, 764, 1199, 983, 124, -315, -2, 101, -94, -54, 25, -21, -18]"
1714325496745581964,"[23, 21, 7, 14, 16, 7, 9, 32, 51, 58, 70, 89, 108, 134, 157, 174, 199, 218, 225, 228, 225, 209, 185, 145, 103, 70, 32, 4, -9, -16, -16, -9, 0, 0, -7, -4, 7, 18, 25, 23, 23, 35, 35, 28, 39, 47, 30, 32, 49, 51, 39, 14, -4, 9, 23, 25, 23, 9, 0, 4, 2, -9, -9, -2, 4, 7, -2, -4, 4, 0, -11, -7, 4]"
1714325497306680825,"[25, 44, 25, 21, 49, 63, 51, 42, 21, 9, 32, 51, 51, 51, 49, 51, 58, 68, 82, 91, 98, 108, 103, 87, 75, 63, 49, 61, 77, 79, 79, 77, 61, 54, 199, 656, 1211, 1258, 479, -244, -82, 166, -11, -70, 7, -21, -30, 16, 25, 18, 30, 47, 58, 68, 79, 98, 91, 79, 98, 129, 143, 152, 171, 192, 216, 228, 223, 216, 218, 211, 185, 145, 96]"
1714325497867794947,"[44, 4, -7, -9, -16, -18, -23, -18, -7, 0, -7, -23, -35, -25, -14, -23, -42, -54, -58, -58, -47, -30, -28, -30, -21, -14, -7, 2, 4, 7, 11, 16, 21, 28, 30, 18, -7, -14, 4, 18, 18, 21, 30, 37, 44, 47, 51, 51, 37, 28, 42, 54, 49, 51, 61, 61, 65, 70, 77, 94, 103, 89, 91, 103, 98, 94, 105, 110, 115, 127, 138, 143, 136]"
1714325498428909065,"[119, 119, 129, 124, 127, 134, 115, 89, 70, 44, 51, 223, 646, 1107, 1107, 390, -256, -77, 171, -7, -63, 44, 21, -4, 61, 84, 56, 61, 51, 11, 37, 105, 91, 54, 94, 155, 143, 105, 164, 244, 221, 185, 206, 211, 199, 197, 181, 143, 91, 39, 23, 18, -9, -37, -42, -54, -68, -65, -61, -58, -58, -58, -37, -14, -4, 2, -2, -18, -14, 16, 35, 18, -7]"
1714325498990033361,"[-4, 14, 23, 23, 25, 14, -9, -11, -2, 9, 23, 2, -28, 16, 89, 91, 58, 42, 32, 47, 54, 18, 14, 47, 54, 47, 54, 63, 70, 72, 77, 84, 87, 70, 47, 39, 54, 63, 63, 65, 63, 56, 56, 54, 91, 362, 860, 1180, 818, -9, -263, 96, 122, -61, 4, 63, 23, 51, 77, 56, 68, 91, 82, 70, 79, 84, 89, 108, 129, 150, 162, 171, 192]"
1714325499551137305,"[216, 235, 242, 235, 225, 221, 216, 188, 124, 42, -16, -37, -54, -94, -134, -131, -103, -98, -98, -65, -47, -63, -72, -56, -49, -51, -51, -54, -54, -39, -30, -23, -16, -21, -21, -11, -7, -2, 4, -2, -11, -2, 16, 37, 49, 30, -4, 9, 42, 44, 42, 39, 35, 32, 14, 14, 32, 35, 47, 77, 68, 23, 28, 65, 63, 54, 65, 70, 72, 89, 96, 110, 119]"
1714325500112266688,"[89, 68, 77, 82, 75, 89, 103, 75, 54, 58, 61, 195, 616, 1100, 1121, 399, -279, -129, 117, -44, -91, 11, -7, -30, 11, 23, 30, 51, 54, 47, 58, 77, 77, 84, 105, 119, 138, 166, 176, 174, 185, 197, 206, 218, 195, 164, 169, 148, 89, 51, 25, -7, -32, -37, -35, -47, -56, -61, -63, -63, -51, -37, -37, -37, -23, -14, -11, 2, 14, 7, -7, 0, 9]"
1714325500673365549,"[0, -4, -2, -11, -18, -9, 2, 4, 2, -11, -21, -7, 9, 11, 14, 14, 18, 30, 39, 44, 44, 44, 51, 56, 61, 65, 63, 61, 72, 82, 84, 89, 84, 77, 84, 91, 75, 68, 77, 94, 117, 129, 112, 87, 70, 72, 87, 101, 108, 108, 101, 98, 96, 101, 246, 677, 1152, 1138, 404, -218, -30, 181, -11, -32, 94, 54, -16, -2, 11, 18, 35, 42, 44]"
1714325501234479671,"[54, 68, 87, 91, 94, 110, 122, 131, 155, 181, 199, 214, 199, 178, 190, 197, 178, 145, 84, 21, -7, -28, -58, -75, -79, -79, -79, -87, -84, -70, -65, -63, -44, -25, -16, -9, -11, -7, 11, 21, 23, 21, 23, 37, 47, 49, 56, 58, 47, 47, 61, 70, 77, 79, 68, 68, 79, 82, 68, 44, 32, 44, 61, 63, 56, 54, 56, 72, 101, 117, 112, 87, 58]"
1714325501795593789,"[63, 87, 94, 84, 82, 89, 89, 87, 87, 79, 218, 658, 1103, 1001, 251, -279, -49, 141, -47, -68, 32, 0, -23, 25, 35, 28, 47, 58, 65, 75, 84, 101, 110, 117, 136, 152, 166, 190, 214, 228, 242, 256, 251, 244, 237, 204, 157, 108, 61, 25, -23, -79, -103, -94, -89, -84, -75, -72, -65, -51, -44, -35, -28, -25, -11, -7, -14, -11, -14, -21, -11, -7, -11]"
1714325502356692650,"[-11, -7, -2, 0, 2, 0, -11, -30, -37, -30, -25, -25, -18, -16, -11, 4, 4, 4, 14, 18, 25, 35, 39, 37, 39, 49, 61, 61, 61, 72, 89, 103, 112, 103, 77, 68, 75, 77, 82, 89, 82, 58, 47, 35, 4, 134, 590, 1131, 1173, 428, -272, -122, 131, -42, -103, 9, 2, -21, 16, 21, 11, 32, 51, 63, 75, 72, 75, 94, 112, 131, 145, 148, 157]"
1714325502917822029,"[174, 190, 214, 209, 166, 150, 166, 159, 127, 82, 32, 2, -7, -18, -28, -28, -35, -30, -14, -4, 7, 16, 9, 14, 30, 39, 44, 37, 28, 35, 49, 39, 23, 14, 9, -4, -18, -11, -2, -11, -16, -2, 7, -2, -9, -18, -32, -23, -7, 0, 0, -4, -4, 7, 11, 14, 28, 32, 23, 25, 39, 44, 47, 39, 21, 21, 37, 49, 49, 47, 49, 56, 70]"
1714325503478925981,"[72, 65, 68, 89, 110, 117, 103, 65, 35, 42, 61, 65, 65, 65, 70, 72, 70, 56, 136, 503, 1048, 1248, 653, -166, -197, 127, 21, -101, -4, -11, -72, -35, -2, -9, 7, 30, 35, 37, 49, 56, 79, 103, 110, 117, 136, 157, 178, 195, 204, 209, 221, 225, 221, 218, 199, 145, 94, 63, 37, 11, -14, -37, -44, -37, -18, -7, -11, 2, 21, 16, 7, 16, 23]"
1714325504040050273,"[30, 44, 47, 30, 16, 14, 14, 7, 2, 2, -7, -18, -14, -11, -30, -35, -21, -18, -16, -2, 2, -16, -35, -23, 0, 2, 0, 0, 4, 30, 51, 44, 44, 56, 54, 51, 63, 72, 77, 75, 72, 75, 87, 94, 94, 98, 103, 110, 124, 122, 98, 77, 84, 101, 101, 108, 108, 98, 105, 115, 112, 237, 630, 1084, 1091, 428, -192, -58, 185, 35, -18, 89, 77]"
1714325504601149134,"[44, 72, 75, 77, 96, 87, 70, 63, 63, 75, 94, 115, 131, 129, 124, 129, 162, 195, 197, 192, 202, 204, 202, 192, 157, 96, 54, 28, -4, -25, -39, -58, -56, -39, -28, -23, -23, -30, -30, -18, 0, 7, 2, -11, -14, -4, -2, -2, 0, -7, -4, 9, 11, 14, 9, 0, 7, 23, 28, 25, 23, 25, 30, 35, 42, 47, 47, 47, 49, 47, 37, 39, 47]"
1714325505162268343,"[42, 47, 56, 63, 61, 58, 58, 54, 58, 54, 21, -7, 4, 21, 21, 28, 35, 32, 37, 44, 37, 87, 383, 891, 1175, 750, -68, -246, 98, 75, -89, -4, 44, -4, 11, 42, 37, 54, 77, 79, 82, 91, 98, 110, 129, 138, 150, 171, 190, 206, 230, 246, 251, 249, 244, 237, 223, 197, 155, 98, 47, 9, -11, -23, -30, -30, -30, -25, -11, -7, -11, -25, -54]"
1714325505723377374,"[-61, -37, -30, -23, -14, -11, -4, -4, -21, -25, -11, -4, -4, -14, -25, -32, -35, -30, -25, -35, -42, -28, -16, -23, -16, -4, -2, -2, 2, 7, 16, 16, 16, 30, 37, 30, 35, 44, 47, 51, 61, 61, 58, 56, 65, 89, 108, 110, 101, 84, 72, 65, 54, 51, 63, 63, 63, 77, 75, 51, 124, 479, 1023, 1258, 700, -155, -239, 96, 16, -105, 2, 21, -32]"
1714325506284506753,"[-2, 32, 28, 32, 39, 28, 23, 49, 70, 72, 72, 82, 101, 124, 152, 169, 181, 197, 218, 225, 223, 221, 206, 176, 141, 101, 61, 16, -18, -25, -23, -28, -21, -9, -14, -16, 2, 11, 14, 21, 18, 9, 2, -11, -21, -16, -18, -23, -14, -2, 4, 7, 0, 0, 14, 16, 11, -9, -30, -25, -7, -2, 9, 16, 7, 11, 30, 37, 39, 39, 32, 39, 56]"
1714325506845605618,"[63, 56, 37, 28, 42, 54, 58, 61, 42, 21, 35, 54, 56, 54, 51, 61, 84, 108, 110, 89, 68, 65, 75, 79, 84, 94, 89, 82, 87, 87, 89, 258, 712, 1173, 1079, 291, -265, -30, 141, -47, -47, 56, 23, 2, 37, 42, 47, 70, 82, 87, 75, 54, 70, 103, 110, 115, 134, 157, 176, 202, 223, 225, 209, 206, 221, 206, 164, 129, 89, 44, 14, 0, -16]"
1714325507406734997,"[-25, -28, -35, -37, -28, -28, -42, -47, -39, -30, -23, -28, -39, -32, -21, -14, -7, -4, 0, 7, 14, 21, 25, 25, 21, 9, 4, 14, 23, 25, 35, 44, 39, 44, 56, 54, 61, 72, 68, 68, 77, 72, 56, 39, 44, 56, 56, 56, 65, 72, 70, 79, 82, 87, 115, 134, 119, 91, 68, 68, 77, 82, 82, 84, 89, 96, 101, 96, 96, 230, 623, 1072, 1077]"
1714325507967849119,"[402, -232, -79, 185, 35, -23, 79, 61, 28, 70, 87, 82, 94, 96, 84, 70, 63, 77, 96, 101, 110, 136, 157, 174, 206, 232, 242, 244, 249, 244, 230, 202, 162, 119, 75, 9, -44, -63, -72, -77, -68, -61, -58, -54, -54, -49, -32, -16, -16, -30, -35, -32, -30, -30, -37, -47, -44, -21, 2, 14, 11, -7, -4, 9, 14, 14, 14, 11, 18, 32, 37, 39, 42]"
1714325508528963237,"[30, 30, 47, 54, 54, 54, 49, 35, 39, 54, 56, 44, 23, 21, 42, 49, 54, 63, 70, 91, 103, 82, 63, 61, 61, 61, 72, 79, 58, 28, 28, 35, 47, 251, 733, 1171, 1013, 204, -301, -37, 110, -79, -75, 18, -9, -18, 23, 25, 18, 35, 54, 65, 75, 75, 77, 96, 115, 131, 145, 155, 174, 202, 223, 235, 239, 235, 223, 221, 206, 166, 119, 65, 18]"
1714325509090092616,"[2, -4, -18, -23, -25, -32, -32, -21, -21, -37, -42, -30, -18, -9, -2, -2, 7, 14, 18, 14, -9, -39, -42, -37, -37, -30, -25, -30, -25, -25, -37, -39, -30, -23, -18, -11, -4, 4, 9, 9, 16, 18, 25, 37, 37, 39, 42, 44, 54, 58, 56, 61, 68, 72, 75, 77, 72, 75, 84, 87, 89, 89, 79, 75, 79, 82, 82, 91, 105, 119, 129, 127, 112]"
1714325509651221995,"[91, 87, 101, 105, 98, 96, 84, 68, 72, 70, 82, 315, 827, 1248, 987, 108, -312, 4, 94, -98, -58, 2, -63, -51, 7, 4, 4, 28, 35, 37, 47, 61, 77, 96, 108, 115, 127, 143, 145, 152, 171, 183, 190, 204, 206, 192, 169, 131, 89, 65, 47, 21, -11, -42, -56, -56, -63, -65, -58, -56, -44, -21, -14, -16, -14, -7, 0, 4, 11, 21, 18, 18, 32]"
1714325510212325947,"[44, 44, 49, 30, 4, 11, 9, -11, -11, -4, -9, -2, 2, 2, 4, 4, 9, 18, 37, 51, 49, 39, 37, 54, 70, 75, 70, 63, 72, 89, 96, 103, 96, 79, 87, 103, 108, 115, 112, 101, 105, 112, 105, 103, 122, 136, 138, 141, 124, 103, 105, 112, 108, 108, 112, 117, 119, 110, 103, 230, 632, 1114, 1161, 491, -192, -84, 183, 42, -30, 63, 54, 18, 32]"
1714325510773450239,"[32, 25, 37, 39, 23, 23, 39, 42, 44, 65, 94, 122, 129, 124, 143, 176, 197, 206, 204, 181, 162, 148, 110, 65, 18, -25, -54, -65, -68, -70, -82, -89, -79, -61, -49, -58, -75, -65, -51, -39, -23, -11, -7, 4, 11, 14, 23, 32, 32, 37, 49, 51, 51, 54, 54, 54, 58, 65, 68, 68, 72, 77, 72, 75, 65, 35, 25, 28, 14, 18, 32, 30, 35]"
1714325511334564361,"[47, 54, 72, 96, 98, 84, 65, 56, 63, 56, 44, 51, 58, 58, 65, 65, 49, 63, 251, 703, 1145, 1039, 256, -284, -30, 150, -47, -68, 30, 7, -11, 25, 30, 25, 44, 65, 65, 70, 82, 91, 101, 122, 143, 155, 171, 190, 211, 223, 223, 230, 230, 214, 204, 190, 141, 87, 49, -4, -68, -89, -82, -89, -98, -96, -94, -98, -98, -94, -91, -84, -68, -56, -49]"
1714325511895678479,"[-42, -37, -25, -11, -2, 2, -2, -4, 0, 9, 21, 18, -2, -28, -16, 9, 9, -7, -16, -16, -7, 7, 18, 21, 16, 21, 39, 47, 47, 51, 49, 49, 58, 68, 72, 65, 63, 75, 79, 75, 82, 89, 91, 87, 89, 108, 124, 127, 124, 110, 65, 37, 61, 75, 58, 61, 77, 84, 84, 70, 56, 228, 717, 1239, 1204, 390, -263, -54, 155, -35, -56, 39, 2]"
1714325512456807858,"[-14, 32, 44, 44, 54, 56, 63, 77, 77, 65, 51, 51, 65, 82, 98, 117, 131, 148, 169, 183, 192, 195, 181, 159, 134, 98, 61, 18, -21, -51, -68, -72, -70, -70, -72, -70, -54, -39, -35, -35, -39, -49, -54, -61, -63, -51, -44, -37, -25, -14, -9, -4, -2, 2, 11, 18, 21, 23, 25, 28, 35, 47, 47, 42, 39, 49, 61, 65, 61, 63, 70, 72, 65]"
1714325513017937241,"[54, 54, 58, 58, 58, 65, 72, 56, 35, 37, 49, 51, 56, 61, 61, 63, 70, 75, 77, 84, 91, 96, 110, 134, 138, 110, 91, 94, 105, 112, 103, 91, 87, 89, 89, 72, 47, 110, 435, 945, 1204, 750, -75, -235, 110, 72, -82, 7, 42, -18, -2, 28, 25, 35, 49, 47, 61, 77, 77, 82, 94, 108, 129, 143, 131, 127, 152, 164, 166, 176, 176, 176, 176]"
1714325513579036102,"[150, 96, 47, 14, -30, -79, -82, -56, -65, -79, -72, -61, -44, -30, -30, -21, -9, -4, 16, 30, 30, 35, 35, 30, 37, 54, 51, 47, 39, 21, 23, 44, 47, 35, 44, 51, 47, 58, 68, 51, 39, 56, 77, 87, 89, 72, 61, 77, 91, 89, 101, 103, 98, 117, 131, 110, 75, 51, 68, 96, 91, 91, 94, 77, 72, 89, 91, 89, 211, 597, 1060, 1110, 460]"
1714325514140165481,"[-206, -108, 157, 28, -32, 68, 56, 16, 49, 68, 61, 70, 79, 79, 75, 77, 94, 105, 117, 117, 108, 117, 124, 141, 178, 190, 183, 181, 176, 164, 145, 94, 39, 9, -21, -51, -63, -70, -87, -84, -61, -56, -72, -82, -82, -91, -103, -98, -79, -70, -65, -47, -37, -35, -25, -23, -25, -18, -7, -4, -9, 2, 16, 16, 21, 28, 25, 23, 23, 30, 37, 35, 35]"
1714325514701279603,"[44, 56, 51, 49, 61, 54, 39, 44, 54, 54, 44, 37, 47, 58, 37, 11, 2, 0, 7, 16, 18, 25, 35, 42, 44, 39, 30, 150, 557, 1084, 1192, 517, -235, -152, 136, -16, -101, -4, -18, -49, -7, 9, 2, 16, 35, 42, 49, 63, 70, 79, 96, 112, 124, 143, 164, 188, 209, 221, 228, 230, 232, 235, 216, 166, 112, 87, 63, 28, -2, -21, -25, -16, -16]"
1714325515262393721,"[-14, 2, -7, -37, -23, 0, -16, -49, -68, -63, -44, -37, -35, -25, -23, -14, -4, -9, -18, -23, -28, -30, -21, -18, -21, -16, -14, -14, -18, -23, -16, -9, -11, 2, 16, 18, 16, 16, 21, 28, 32, 35, 37, 47, 54, 56, 61, 63, 63, 63, 68, 75, 84, 89, 79, 77, 96, 122, 134, 127, 89, 56, 63, 79, 75, 65, 70, 79, 84, 84, 79, 70, 202]"
1714325515823523100,"[646, 1178, 1180, 395, -277, -103, 103, -72, -91, 11, -18, -47, -4, 14, 11, 28, 39, 35, 37, 39, 44, 61, 72, 77, 96, 119, 143, 169, 188, 192, 211, 232, 230, 218, 197, 145, 103, 75, 37, 7, -18, -39, -30, -21, -23, -23, -16, -4, 4, 2, -11, -39, -65, -51, -16, -11, -9, -4, -14, -18, -7, 2, 9, 18, 0, -32, -21, 9, 7, -2, 4, 2, 0]"
1714325516384621961,"[9, 18, 16, 7, 30, 61, 47, 39, 44, 16, 14, 28, 21, 21, 30, 28, 32, 44, 44, 54, 72, 72, 61, 68, 82, 82, 75, 82, 98, 117, 134, 141, 117, 91, 91, 101, 98, 94, 96, 94, 96, 101, 75, 68, 282, 771, 1180, 994, 195, -277, 2, 162, -28, -44, 49, 32, 16, 30, -4, 16, 89, 84, 51, 72, 91, 89, 103, 115, 129, 157, 176, 178, 206]"
1714325516945751344,"[237, 228, 195, 209, 242, 211, 157, 134, 91, 35, 4, -30, -75, -72, -58, -72, -75, -63, -49, -39, -56, -75, -70, -68, -65, -47, -35, -35, -35, -30, -18, -9, -9, -21, -21, 0, 2, -16, -14, 9, 18, 7, 16, 47, 49, 35, 35, 42, 44, 39, 18, 2, 7, 14, 23, 32, 30, 30, 51, 79, 98, 105, 87, 58, 54, 54, 49, 56, 65, 58, 58, 68, 68]"
1714325517506850205,"[56, 159, 543, 1058, 1178, 536, -197, -138, 141, -9, -103, 21, 28, -16, 14, 28, 21, 44, 65, 68, 70, 77, 94, 103, 103, 105, 115, 129, 157, 202, 237, 242, 239, 249, 251, 239, 209, 159, 105, 54, 25, 9, -35, -77, -70, -56, -54, -39, -35, -39, -23, -4, -2, 0, 0, -4, -9, -11, -4, 9, 16, 11, 11, 23, 30, 30, 35, 35, 21, 16, 16, 14, 2]"
1714325518067979584,"[-9, -7, 0, 7, 11, 14, 9, 9, 21, 28, 25, 25, 7, -7, 7, 7, -7, 0, 4, 0, 14, 35, 39, 39, 35, 35, 47, 58, 65, 68, 63, 65, 70, 77, 87, 87, 77, 77, 72, 58, 58, 63, 61, 63, 75, 79, 82, 77, 51, 47, 244, 750, 1274, 1199, 343, -282, -35, 150, -58, -61, 47, 0, -18, 42, 54, 37, 51, 63, 68, 84, 91, 89, 101]"
1714325518629078445,"[117, 129, 150, 164, 178, 199, 206, 206, 214, 206, 188, 183, 164, 124, 82, 37, 2, -18, -39, -51, -47, -44, -42, -35, -30, -18, -16, -37, -63, -63, -58, -58, -51, -42, -32, -25, -23, -16, -14, -23, -18, -9, -9, -4, 0, 0, 9, 16, 16, 18, 23, 28, 35, 44, 47, 44, 44, 47, 58, 63, 63, 68, 70, 75, 82, 77, 72, 77, 79, 77, 70, 54, 51]"
1714325519190207824,"[72, 84, 82, 89, 94, 77, 54, 30, 39, 75, 79, 70, 84, 91, 87, 94, 87, 68, 84, 124, 119, 79, 72, 70, 49, 56, 72, 75, 75, 68, 61, 63, 56, 75, 308, 816, 1251, 1051, 197, -270, 23, 129, -75, -47, 35, -18, -21, 21, 9, 14, 49, 61, 54, 54, 65, 82, 87, 103, 119, 119, 127, 127, 119, 155, 202, 192, 169, 181, 183, 159, 122, 72, 32]"
1714325519751306685,"[9, -18, -42, -51, -49, -42, -42, -37, -28, -35, -51, -49, -44, -56, -56, -35, -25, -25, -11, 4, 9, 4, 2, 11, 18, 23, 30, 30, 28, 47, 58, 56, 58, 58, 51, 56, 72, 77, 72, 68, 70, 84, 91, 87, 87, 87, 89, 101, 101, 96, 98, 94, 82, 72, 75, 84, 82, 75, 75, 94, 119, 138, 124, 94, 79, 91, 98, 96, 89, 87, 89, 96, 98]"
1714325520312436068,"[87, 136, 430, 938, 1220, 778, -87, -308, 37, 28, -131, -58, -44, -119, -89, -54, -35, 44, 63, 7, 2, 28, 35, 49, 63, 63, 77, 105, 134, 157, 183, 190, 185, 183, 174, 164, 150, 119, 75, 23, -18, -42, -63, -89, -112, -122, -103, -84, -87, -82, -65, -63, -58, -44, -32, -25, -11, -2, 0, 2, 21, 39, 42, 37, 42, 47, 44, 51, 54, 42, 18, 2, 7]"
1714325520873545103,"[23, 28, 23, 9, 4, 16, 28, 30, 28, 18, 0, -2, 16, 23, 21, 25, 32, 39, 49, 49, 49, 54, 54, 61, 70, 75, 72, 72, 75, 82, 87, 87, 94, 108, 117, 112, 94, 77, 68, 65, 70, 77, 84, 87, 84, 79, 75, 72, 192, 613, 1168, 1286, 587, -188, -115, 164, 4, -82, 30, 28, -14, 9, 14, -18, -21, 4, 14, -4, -9, 11, 32, 47, 68]"
1714325521434664308,"[84, 91, 101, 119, 141, 150, 150, 150, 155, 157, 150, 127, 77, 7, -39, -49, -61, -72, -75, -82, -77, -61, -47, -37, -30, -37, -42, -35, -18, -2, 0, 0, 11, 28, 35, 39, 42, 37, 44, 58, 65, 70, 63, 56, 61, 72, 77, 79, 72, 70, 79, 87, 91, 91, 87, 77, 58, 37, 32, 32, 28, 28, 39, 49, 56, 56, 51, 49, 61, 75, 82, 84, 77]"
1714325521995793687,"[75, 87, 94, 94, 96, 96, 94, 98, 105, 101, 72, 61, 84, 112, 124, 122, 101, 68, 44, 44, 49, 49, 51, 54, 56, 56, 49, 94, 388, 933, 1288, 884, -16, -289, 44, 35, -141, -54, 25, -23, -32, -2, 2, 2, 23, 35, 32, 42, 42, 23, 25, 47, 65, 84, 101, 129, 155, 171, 195, 209, 211, 211, 204, 188, 152, 110, 70, 39, 18, 0, -11, -9, -16]"
1714325522556892548,"[-14, 0, 7, 14, 16, 7, 9, 30, 42, 44, 51, 68, 49, -2, 7, 82, 89, 39, 39, 72, 77, 63, 63, 72, 68, 63, 75, 87, 87, 79, 79, 87, 94, 89, 87, 91, 91, 94, 101, 96, 75, 54, 39, 30, 35, 44, 44, 47, 42, 51, 82, 101, 101, 87, 61, 56, 70, 82, 79, 77, 77, 79, 89, 94, 87, 138, 428, 905, 1133, 679, -105, -244, 98]"
1714325523118021927,"[68, -89, -2, 47, -18, -32, 4, 18, 16, 16, 4, -9, 7, 35, 44, 42, 51, 75, 101, 122, 145, 171, 185, 197, 211, 211, 197, 185, 152, 96, 54, 11, -35, -61, -87, -117, -115, -96, -87, -84, -82, -77, -63, -39, -30, -28, -18, -4, 7, 21, 37, 35, 23, 30, 37, 44, 58, 56, 49, 68, 65, 44, 56, 68, 42, 32, 56, 63, 56, 56, 51, 61, 84]"
1714325523679125879,"[84, 70, 68, 75, 75, 75, 75, 70, 51, 32, 51, 82, 89, 98, 96, 70, 56, 63, 68, 72, 75, 70, 58, 51, 54, 42, 14, 119, 562, 1112, 1159, 413, -303, -162, 103, -65, -117, 0, -25, -61, -4, 21, 14, 23, 32, 35, 47, 61, 72, 77, 70, 84, 117, 136, 134, 143, 166, 178, 190, 211, 216, 188, 169, 152, 108, 56, 9, -32, -65, -94, -98, -84, -79]"
1714325524240250171,"[-84, -84, -75, -49, -32, -47, -42, -16, -11, -11, -9, -25, -28, -21, -32, -35, -16, -14, -21, -37, -47, -28, -16, -28, -16, 4, 2, 2, 11, 16, 23, 30, 32, 37, 39, 47, 61, 61, 56, 63, 70, 70, 72, 79, 77, 61, 49, 61, 75, 70, 70, 79, 77, 77, 89, 89, 82, 96, 115, 131, 138, 122, 91, 82, 96, 103, 105, 108, 98, 94, 103, 96, 84]"
1714325524801379550,"[183, 571, 1121, 1295, 660, -164, -171, 127, -16, -131, -16, -16, -84, -56, -25, -35, -23, 0, -7, -18, -2, 16, 30, 49, 61, 65, 82, 112, 143, 166, 178, 181, 181, 183, 183, 169, 115, 39, 0, -18, -47, -70, -84, -91, -87, -79, -70, -61, -51, -47, -42, -30, -11, 0, -2, -9, -2, 18, 32, 35, 35, 30, 32, 49, 54, 54, 56, 51, 39, 30, 39, 51, 42]"
1714325525362478411,"[32, 47, 61, 61, 54, 23, -4, 16, 42, 44, 42, 28, 9, 28, 42, 39, 42, 42, 42, 58, 68, 75, 84, 77, 65, 79, 91, 79, 65, 56, 58, 70, 89, 108, 119, 110, 96, 87, 91, 98, 98, 91, 96, 110, 105, 87, 89, 110, 282, 745, 1222, 1138, 345, -249, -32, 171, 9, -2, 77, 28, -2, 39, 51, 42, 49, 49, 54, 68, 79, 79, 68, 56, 72]"
1714325525923607790,"[105, 129, 138, 159, 185, 197, 202, 202, 190, 174, 143, 103, 63, 16, -32, -70, -89, -103, -119, -119, -103, -94, -91, -94, -84, -49, -30, -44, -35, -11, -4, 0, 7, 14, 18, 23, 35, 44, 44, 47, 49, 51, 58, 63, 56, 58, 68, 65, 68, 70, 63, 49, 42, 56, 63, 58, 58, 61, 68, 68, 75, 96, 96, 75, 51, 35, 30, 37, 54, 65, 63, 63, 70]"
1714325526484706651,"[65, 56, 56, 127, 451, 966, 1190, 672, -141, -249, 75, 16, -117, -21, 11, -35, -9, 21, 16, 28, 54, 61, 61, 65, 79, 98, 115, 131, 141, 148, 171, 206, 230, 242, 251, 256, 254, 246, 235, 199, 145, 91, 42, 0, -23, -44, -65, -65, -49, -47, -44, -28, -28, -35, -28, -32, -49, -44, -35, -42, -39, -32, -35, -44, -44, -32, -21, -18, -7, -2, -16, -23, -9]"
1714325527045836034,"[-7, -16, -30, -49, -54, -37, -25, -11, -2, -14, -11, 9, 21, 23, 21, 16, 30, 47, 47, 51, 51, 42, 47, 68, 79, 72, 61, 70, 98, 122, 127, 112, 91, 70, 68, 75, 79, 84, 82, 77, 84, 87, 70, 127, 460, 1034, 1345, 834, -77, -256, 79, 25, -122, -18, 21, -25, -9, 16, 11, 23, 47, 54, 56, 65, 72, 70, 75, 91, 105, 115, 136, 164, 192]"
1714325527606965413,"[216, 225, 223, 230, 237, 228, 197, 148, 98, 54, 16, -11, -47, -68, -63, -44, -35, -35, -32, -25, -23, -9, 7, 7, -11, -25, -23, -21, -18, -16, -11, -2, 0, 0, 9, 9, 9, 16, 14, 16, 25, 7, -16, -7, 4, 0, 9, 23, 21, 25, 30, 35, 44, 44, 44, 47, 30, 25, 37, 42, 54, 58, 58, 63, 65, 65, 77, 82, 77, 84, 91, 91, 94]"
1714325528168079535,"[94, 89, 96, 103, 101, 103, 119, 134, 138, 115, 77, 70, 84, 89, 84, 75, 68, 77, 91, 84, 61, 119, 460, 1020, 1326, 851, -37, -225, 117, 84, -70, 11, 47, -4, -4, 7, 4, 18, 28, 32, 47, 61, 72, 84, 82, 79, 96, 108, 110, 131, 162, 178, 195, 211, 209, 197, 188, 174, 138, 89, 37, -14, -54, -63, -65, -72, -54, -44, -63, -58, -32, -28, -32]"
1714325528729193653,"[-16, -7, -4, 18, 35, 25, 11, 2, 4, 21, 44, 47, 21, 4, 21, 35, 35, 37, 35, 35, 42, 54, 63, 61, 51, 56, 70, 56, 21, 18, 30, 28, 35, 58, 63, 54, 49, 51, 51, 44, 47, 56, 58, 79, 112, 119, 101, 79, 68, 72, 82, 89, 101, 98, 89, 96, 103, 98, 176, 500, 978, 1166, 658, -105, -178, 143, 82, -39, 61, 77, 7, 11, 42]"
1714325529290323032,"[44, 58, 77, 77, 77, 82, 96, 117, 134, 131, 122, 136, 169, 192, 211, 237, 246, 232, 225, 223, 195, 127, 54, 16, -2, -30, -61, -77, -79, -91, -105, -94, -82, -91, -98, -101, -91, -72, -65, -63, -58, -51, -25, -4, -4, -2, 2, 4, 14, 25, 28, 23, 23, 25, 28, 32, 39, 42, 42, 42, 44, 37, 28, 28, 35, 35, 37, 47, 54, 54, 54, 56, 58]"
1714325529851452415,"[72, 77, 72, 75, 77, 75, 70, 49, 51, 87, 108, 101, 82, 49, 18, 16, 21, 28, 35, 37, 30, 18, 21, 18, 87, 451, 1020, 1255, 691, -141, -214, 112, 28, -96, 0, 18, -25, 4, 32, 25, 32, 51, 51, 58, 82, 91, 91, 105, 124, 136, 150, 169, 174, 183, 204, 221, 237, 239, 228, 211, 185, 148, 108, 68, 28, -11, -32, -30, -25, -25, -30, -28, -21]"
1714325530412551276,"[-11, 2, 4, -2, -9, -18, -28, -51, -58, -54, -70, -79, -75, -65, -56, -58, -61, -44, -30, -23, -16, -21, -23, -11, 2, 11, 11, 7, 7, 25, 44, 47, 42, 44, 49, 56, 58, 63, 63, 58, 56, 72, 94, 84, 58, 51, 58, 68, 77, 82, 82, 79, 82, 91, 103, 103, 98, 94, 94, 96, 105, 110, 110, 112, 131, 152, 148, 127, 105, 94, 101, 101, 77]"
1714325530973680655,"[61, 68, 63, 47, 35, 84, 381, 921, 1286, 931, 49, -256, 79, 89, -101, -23, 44, -4, -2, 2, -32, -25, 9, 16, 21, 25, 25, 42, 72, 84, 91, 105, 124, 141, 155, 155, 155, 148, 141, 150, 157, 134, 96, 56, 11, -16, -28, -42, -56, -61, -58, -51, -44, -37, -28, -18, -14, -7, 7, 18, 21, 25, 30, 37, 39, 18, 0, -2, -2, 9, 23, 28, 28]"
1714325531534794777,"[28, 23, 30, 54, 58, 47, 49, 63, 68, 68, 54, 32, 35, 49, 56, 65, 70, 65, 65, 75, 87, 87, 79, 75, 84, 77, 58, 65, 79, 75, 77, 84, 82, 84, 91, 103, 110, 101, 94, 98, 112, 129, 138, 134, 119, 103, 91, 94, 101, 94, 101, 122, 122, 108, 96, 103, 282, 726, 1133, 1011, 261, -263, -30, 122, -56, -35, 47, -11, -18, 30, 23, 16, 42]"
1714325532095908895,"[65, 68, 51, 49, 63, 63, 54, 54, 56, 72, 110, 131, 136, 150, 164, 174, 169, 138, 108, 98, 72, 23, -14, -30, -63, -96, -87, -51, -58, -94, -84, -25, 18, 7, -4, 11, 14, 7, 21, 39, 47, 49, 51, 54, 58, 58, 58, 63, 56, 44, 35, 21, 9, 11, 14, 7, 9, 30, 56, 42, 11, 37, 70, 63, 68, 94, 79, 61, 75, 87, 84, 87, 82]"
1714325532657038274,"[77, 87, 98, 98, 84, 61, 56, 70, 68, 42, 28, 35, 47, 63, 87, 105, 96, 72, 65, 70, 65, 68, 70, 61, 58, 84, 103, 82, 77, 256, 722, 1192, 1088, 286, -270, -21, 169, -25, -44, 37, -21, -49, -4, -14, -39, -16, -2, -9, 7, 25, 39, 49, 49, 56, 68, 82, 96, 101, 110, 134, 150, 159, 162, 150, 129, 105, 75, 32, -11, -35, -42, -56, -79]"
1714325533218137135,"[-89, -75, -65, -61, -56, -47, -32, -28, -47, -54, -37, -16, -2, 2, -2, 7, 32, 39, 30, 32, 44, 39, 37, 56, 61, 49, 49, 58, 61, 61, 65, 63, 54, 58, 63, 51, 32, 23, 32, 37, 37, 47, 54, 54, 54, 56, 54, 61, 72, 75, 72, 82, 82, 87, 96, 89, 84, 94, 96, 96, 103, 101, 94, 79, 65, 84, 108, 112, 115, 108, 82, 75, 82]"
1714325533779266518,"[82, 87, 82, 63, 61, 49, 21, 18, 145, 557, 1098, 1213, 519, -235, -148, 122, -35, -119, -25, -37, -87, -65, -61, -82, -58, -23, -23, -28, -23, -28, -23, 4, 23, 30, 47, 68, 96, 129, 148, 159, 171, 176, 176, 171, 148, 105, 63, 35, 9, -11, -25, -32, -39, -42, -44, -47, -39, -35, -25, -7, 7, 9, 16, 23, 25, 30, 44, 54, 56, 56, 54, 51, 58]"
1714325534340395897,"[72, 70, 61, 65, 72, 79, 82, 68, 39, 28, 51, 70, 51, 30, 30, 35, 42, 56, 70, 68, 56, 30, 9, 23, 47, 39, 25, 44, 68, 70, 68, 65, 58, 65, 94, 112, 119, 115, 91, 77, 87, 79, 65, 65, 58, 39, 37, 49, 44, 84, 369, 877, 1159, 743, -65, -270, 54, 49, -105, -37, -7, -65, -49, -9, -9, -7, 11, 11, 9, 35, 54, 56, 68]"
1714325534901494758,"[77, 91, 115, 131, 138, 155, 178, 195, 202, 206, 204, 174, 117, 56, 0, -39, -63, -87, -103, -105, -98, -87, -77, -77, -70, -61, -49, -32, -21, -11, -7, 0, 11, 23, 28, 28, 16, 11, 23, 28, 18, 25, 49, 51, 47, 56, 61, 54, 54, 56, 56, 58, 61, 65, 68, 68, 72, 77, 75, 82, 94, 89, 87, 98, 96, 89, 89, 87, 75, 63, 68, 77, 89]"
1714325535462624137,"[103, 115, 101, 77, 68, 58, 30, 18, 28, 16, 4, 21, 23, 7, 108, 498, 1034, 1199, 583, -209, -202, 112, -4, -124, -28, -11, -49, -23, -11, -21, -7, 9, 9, 18, 37, 49, 56, 61, 65, 70, 84, 98, 112, 134, 152, 162, 171, 178, 176, 162, 138, 98, 47, -2, -30, -35, -47, -56, -49, -58, -79, -75, -58, -49, -35, -28, -25, -9, 4, 4, 18, 11, -21]"
1714325536023753516,"[-28, 2, 16, 11, 14, 16, -4, -9, 9, 18, 16, 14, 16, 23, 32, 32, 39, 49, 39, 35, 54, 61, 56, 56, 56, 61, 68, 70, 70, 72, 75, 79, 87, 96, 96, 87, 84, 96, 105, 105, 101, 98, 103, 110, 110, 112, 110, 98, 101, 119, 129, 124, 110, 89, 79, 87, 94, 96, 94, 87, 91, 105, 108, 84, 70, 277, 811, 1281, 1063, 183, -282, 14, 110]"
1714325536584882899,"[-94, -63, 21, -35, -47, 2, 11, 11, 30, 25, 11, 25, 56, 72, 79, 72, 63, 72, 91, 105, 112, 110, 115, 136, 148, 152, 150, 129, 96, 65, 32, 2, -23, -44, -56, -54, -49, -42, -37, -37, -30, -23, -30, -30, -16, -7, -11, -23, -37, -51, -61, -56, -37, -21, -14, -7, -7, -23, -37, -18, 4, 2, 0, 14, 18, 23, 37, 39, 37, 47, 51, 54, 63]"
1714325537145981760,"[63, 54, 56, 63, 70, 72, 56, 44, 56, 65, 65, 75, 79, 77, 79, 87, 94, 96, 98, 101, 105, 110, 129, 148, 143, 127, 112, 110, 117, 119, 110, 112, 110, 91, 87, 94, 98, 254, 691, 1150, 1112, 381, -239, -54, 185, 7, -51, 44, 25, -14, 0, 2, 4, 18, 28, 42, 56, 58, 72, 84, 89, 96, 108, 115, 112, 115, 145, 178, 188, 188, 185, 171, 143]"
1714325537707111139,"[119, 98, 58, 9, -21, -37, -51, -68, -72, -77, -87, -70, -39, -42, -47, -39, -28, -9, 2, 9, 14, 21, 25, 25, 16, 18, 32, 30, 30, 39, 44, 39, 37, 35, 39, 51, 58, 58, 54, 49, 54, 56, 37, 18, 21, 28, 35, 42, 49, 51, 49, 44, 51, 63, 77, 82, 75, 75, 79, 65, 51, 56, 56, 56, 65, 68, 70, 75, 70, 63, 103, 357, 858]"
1714325538268240518,"[1215, 877, 37, -261, 77, 122, -58, -7, 56, 11, 28, 65, 44, 18, 30, 42, 42, 58, 63, 58, 72, 98, 117, 134, 141, 150, 166, 188, 209, 218, 214, 202, 190, 162, 101, 32, -7, -39, -65, -72, -84, -96, -101, -108, -105, -89, -89, -105, -110, -98, -79, -68, -56, -39, -35, -32, -25, -11, 9, 16, 7, 7, 16, 18, 18, 28, 32, 23, 23, 39, 42, 39, 56]"
1714325538829369897,"[68, 61, 63, 65, 44, 23, 32, 58, 65, 58, 49, 47, 49, 51, 56, 56, 51, 58, 63, 65, 70, 65, 75, 91, 98, 105, 91, 54, 30, 35, 44, 44, 56, 61, 56, 61, 51, 37, 190, 651, 1166, 1140, 343, -298, -87, 131, -51, -82, 14, 0, -4, 23, 44, 61, 56, 63, 82, 77, 72, 91, 112, 127, 129, 131, 155, 188, 192, 190, 204, 211, 197, 185, 185]"
1714325539390468758,"[174, 141, 101, 58, 23, -7, -32, -63, -89, -87, -89, -105, -108, -94, -79, -70, -61, -51, -47, -51, -68, -68, -54, -54, -51, -21, -2, -9, -14, -21, -35, -30, -7, 9, 2, 0, 7, 14, 21, 35, 39, 35, 35, 42, 51, 61, 63, 54, 51, 65, 79, 79, 87, 87, 77, 82, 94, 96, 91, 84, 70, 61, 72, 87, 79, 65, 75, 87, 77, 94, 119, 108, 105]"
1714325539951598137,"[134, 145, 129, 101, 84, 91, 110, 115, 115, 115, 108, 110, 91, 54, 192, 663, 1161, 1114, 343, -296, -122, 87, -94, -115, 4, -35, -70, -9, 0, -9, 11, 21, 21, 25, 32, 47, 63, 82, 96, 103, 119, 141, 164, 190, 221, 225, 206, 199, 197, 174, 138, 98, 35, -18, -32, -44, -63, -70, -72, -70, -68, -51, -28, -37, -42, -7, 14, 4, 4, 11, 23, 39, 42]"
1714325540512702089,"[37, 51, 61, 47, 47, 44, 9, -4, 9, -2, -7, 7, 4, -2, 2, 16, 23, 25, 32, 35, 28, 44, 68, 79, 79, 70, 72, 79, 79, 89, 103, 115, 127, 127, 112, 96, 87, 91, 94, 91, 94, 101, 108, 89, 70, 82, 218, 623, 1084, 1088, 411, -232, -96, 169, 23, -35, 65, 47, 16, 58, 68, 54, 65, 84, 89, 101, 108, 112, 127, 134, 143, 145, 136]"
1714325541073826381,"[157, 188, 192, 195, 211, 216, 214, 204, 169, 119, 58, -2, -37, -63, -91, -101, -103, -103, -89, -72, -70, -65, -58, -56, -56, -54, -56, -63, -54, -35, -28, -28, -18, -9, -11, -18, -11, -7, -9, -9, -9, 2, 16, 16, 11, 9, 9, 21, 30, 32, 32, 32, 42, 51, 58, 58, 56, 63, 63, 68, 98, 110, 101, 89, 63, 32, 18, 21, 11, 2, 21, 30, 32]"
1714325541634955760,"[49, 35, 28, 225, 726, 1206, 1067, 221, -336, -75, 110, -77, -79, 18, -18, -32, 11, 21, 18, 23, 37, 70, 79, 61, 70, 96, 98, 105, 134, 157, 164, 181, 206, 223, 232, 249, 251, 228, 197, 169, 124, 79, 42, 4, -14, -7, -4, -4, -4, -9, -4, 7, 16, 18, 11, -2, -9, -23, -39, -25, -11, -21, -11, 7, 14, 21, 18, 9, 14, 11, 9, 9, -4]"
1714325542196085139,"[-11, 4, 7, -9, -7, -2, -7, 4, 14, 14, 21, 0, -16, 14, 32, 23, 11, 0, 2, 18, 28, 37, 49, 42, 35, 44, 47, 47, 54, 49, 56, 105, 138, 136, 129, 112, 94, 89, 98, 98, 94, 98, 96, 103, 115, 105, 94, 232, 672, 1182, 1190, 428, -272, -127, 115, -56, -105, -2, -18, -25, 11, 9, 4, 23, 42, 58, 65, 58, 65, 103, 129, 131, 131]"
1714325542757184000,"[129, 148, 171, 188, 230, 265, 258, 242, 206, 166, 148, 112, 72, 42, -2, -39, -49, -49, -51, -49, -44, -39, -28, -25, -28, -16, -11, -7, 2, -7, -11, -7, -14, -16, -16, -14, -9, -7, -4, -11, -30, -49, -61, -58, -49, -39, -32, -30, -23, -14, -4, 2, 0, 7, 21, 18, 23, 39, 39, 44, 49, 42, 49, 63, 65, 63, 75, 79, 70, 77, 79, 65, 54]"
1714325543318313379,"[58, 82, 89, 75, 75, 75, 77, 101, 108, 84, 61, 58, 65, 72, 84, 87, 79, 82, 87, 75, 94, 305, 792, 1225, 1041, 216, -258, 32, 155, -49, -28, 47, 2, 0, 2, -28, -7, 28, 32, 28, 39, 51, 61, 89, 115, 122, 127, 143, 176, 204, 225, 239, 235, 237, 244, 228, 204, 162, 96, 51, 23, -7, -37, -54, -61, -70, -75, -61, -25, -16, -51, -42, -16]"
1714325543879442762,"[-30, -30, -18, -32, -30, -9, 2, 2, -9, -28, -25, -2, 11, 11, 4, -11, -9, 14, 16, 14, 14, 0, 0, 7, 14, 18, 2, -18, -14, 11, 30, 32, 32, 30, 32, 47, 58, 77, 89, 84, 72, 58, 58, 77, 75, 63, 72, 84, 89, 87, 77, 70, 185, 580, 1074, 1154, 496, -228, -145, 145, 14, -65, 32, 32, 2, 39, 54, 35, 51, 75, 77, 87, 105]"
1714325544440551797,"[110, 117, 127, 141, 159, 178, 199, 214, 228, 254, 272, 270, 263, 239, 204, 169, 124, 63, -2, -61, -96, -101, -91, -87, -77, -70, -65, -54, -47, -44, -35, -39, -49, -32, -16, -16, -11, 4, 7, 11, 21, 23, 25, 28, 14, -4, -18, -18, -9, -14, -25, -25, -23, -16, -4, -4, -9, 0, 7, 4, 7, 11, 9, 16, 21, 16, 23, 30, 35, 37, 35, 37, 42]"
1714325545001671002,"[51, 58, 58, 58, 47, 47, 58, 51, 39, 32, 35, 42, 30, 23, 16, -2, 11, 32, 32, 30, 28, 30, 37, 49, 44, 72, 371, 954, 1349, 966, 37, -270, 70, 75, -98, -30, 2, -58, -35, 4, 2, 14, 37, 35, 37, 51, 63, 77, 87, 94, 110, 124, 145, 171, 188, 204, 214, 228, 249, 251, 239, 206, 159, 112, 63, 32, 16, -21, -49, -47, -35, -25, -25]"
1714325545562800381,"[-30, -21, -2, -2, -25, -58, -82, -87, -82, -70, -58, -56, -63, -49, -30, -23, -18, -18, -16, -14, -4, 7, 9, 7, 9, 16, 18, 7, 4, 16, 14, 16, 25, 32, 44, 47, 37, 44, 61, 68, 65, 63, 63, 65, 70, 75, 84, 89, 77, 87, 98, 91, 91, 94, 96, 101, 105, 108, 105, 94, 87, 91, 101, 103, 98, 94, 91, 96, 103, 101, 87, 65, 58]"
1714325546123899242,"[75, 94, 115, 127, 105, 87, 82, 82, 82, 68, 49, 54, 65, 79, 79, 54, 91, 404, 954, 1284, 846, -56, -291, 51, 28, -131, -44, -4, -56, -35, 0, 0, 7, 21, 23, 16, 18, 28, 30, 28, 39, 54, 65, 89, 112, 129, 143, 166, 190, 192, 176, 164, 157, 127, 87, 56, 23, -2, -14, -35, -47, -35, -30, -54, -63, -42, -25, -23, -21, -11, -2, 4, 16]"
1714325546685028621,"[23, 23, 28, 39, 44, 44, 30, 16, 23, 21, 7, 11, 23, 23, 28, 32, 32, 42, 51, 49, 51, 58, 61, 65, 65, 70, 82, 87, 77, 77, 84, 89, 96, 94, 89, 96, 96, 91, 101, 110, 96, 77, 70, 84, 89, 82, 82, 87, 87, 96, 110, 103, 89, 94, 108, 110, 101, 96, 82, 61, 61, 77, 77, 70, 58, 47, 51, 65, 61, 75, 284, 762, 1168]"
1714325547246132573,"[954, 134, -305, -18, 94, -94, -72, 4, -47, -79, -58, -49, -37, -18, -14, -23, -14, 16, 35, 44, 61, 70, 79, 110, 141, 159, 183, 202, 209, 216, 218, 204, 166, 103, 58, 37, 11, -14, -23, -47, -61, -49, -42, -42, -35, -37, -28, -2, -18, -49, -30, -7, 2, 21, 25, 21, 23, 28, 37, 56, 58, 51, 42, 28, 30, 39, 51, 61, 47, 30, 39, 61, 68]"
1714325547807256865,"[63, 54, 47, 47, 63, 87, 94, 75, 70, 77, 79, 84, 84, 61, 44, 51, 56, 61, 65, 56, 77, 98, 77, 58, 61, 58, 44, 44, 75, 101, 96, 98, 101, 91, 87, 79, 75, 72, 58, 54, 54, 32, 18, 18, 58, 345, 874, 1201, 813, -23, -270, 54, 51, -122, -61, -39, -117, -87, -28, -44, -49, -32, -35, -21, 23, 44, 32, 28, 37, 65, 91, 103, 124]"
1714325548368370987,"[148, 166, 195, 214, 204, 197, 199, 178, 143, 108, 51, -4, -30, -39, -58, -72, -65, -56, -56, -44, -30, -37, -32, -9, 0, 2, 14, 28, 23, 30, 44, 39, 37, 25, 7, 21, 44, 42, 42, 44, 42, 42, 51, 63, 65, 63, 51, 39, 44, 49, 56, 58, 56, 65, 82, 79, 72, 70, 79, 87, 84, 96, 89, 54, 70, 115, 110, 82, 72, 70, 77, 87, 79]"
1714325548929485105,"[79, 82, 75, 84, 84, 56, 32, 18, 23, 44, 58, 56, 42, 14, -7, -7, 7, 4, -2, 4, 7, 18, 30, 14, 21, 235, 722, 1157, 973, 136, -350, -70, 56, -138, -98, -7, -75, -65, 18, 11, -4, 18, 18, 16, 39, 56, 65, 79, 87, 96, 122, 150, 169, 183, 195, 214, 235, 239, 242, 232, 209, 183, 148, 112, 82, 56, 23, 7, 14, 7, -16, -14, -7]"
1714325549490609401,"[-2, 9, 11, 14, 25, 30, 39, 63, 65, 63, 56, 25, 14, 44, 72, 79, 63, 25, 28, 49, 35, 25, 30, 23, 25, 39, 49, 56, 56, 49, 49, 56, 56, 58, 68, 65, 65, 77, 79, 82, 75, 70, 75, 68, 63, 65, 58, 63, 72, 75, 75, 70, 75, 79, 87, 96, 91, 75, 58, 54, 61, 54, 39, 23, 4, 9, 21, 25, 30, 35, 44, 49, 44]"
1714325550051713345,"[35, 87, 373, 877, 1159, 752, -42, -249, 49, 35, -112, -51, -25, -65, -44, -18, -23, -7, 23, 28, 14, 25, 51, 63, 75, 91, 108, 131, 150, 166, 197, 228, 242, 249, 256, 258, 244, 214, 181, 134, 87, 65, 42, 4, -4, 9, 4, -2, 9, 18, 18, 16, 11, 18, 28, 30, 35, 44, 49, 61, 68, 65, 65, 77, 77, 70, 75, 79, 75, 75, 75, 70, 72]"
1714325550612812210,"[75, 79, 77, 56, 21, 2, 9, 18, 25, 28, 28, 18, 21, 30, 42, 63, 82, 77, 65, 56, 56, 56, 51, 51, 63, 72, 77, 70, 56, 54, 145, 484, 978, 1150, 592, -183, -216, 115, 37, -89, -7, 11, -32, -21, -7, -7, 9, 23, 21, 18, 23, 16, 14, 32, 58, 72, 89, 103, 119, 150, 181, 197, 204, 197, 183, 171, 145, 101, 51, -11, -68, -82, -82]"
1714325551173941589,"[-84, -89, -96, -94, -75, -65, -54, -51, -72, -79, -51, -28, -21, -14, -11, -4, 11, 25, 37, 32, 25, 32, 44, 47, 47, 49, 44, 47, 58, 63, 65, 61, 51, 54, 51, 54, 61, 56, 51, 61, 70, 75, 79, 75, 63, 68, 82, 91, 91, 82, 77, 84, 89, 91, 103, 117, 122, 117, 105, 94, 91, 84, 61, 39, 49, 58, 37, 16, 11, 51, 312, 841, 1248]"
1714325551735040450,"[950, 68, -298, 32, 91, -94, -42, 16, -30, -14, 21, -2, -18, -4, -2, 4, 18, 21, 25, 42, 58, 82, 101, 112, 122, 127, 141, 164, 169, 159, 150, 136, 112, 87, 49, 2, -32, -58, -75, -79, -82, -82, -72, -65, -58, -49, -39, -30, -21, -16, -7, 4, 14, 16, 16, -4, -28, -32, -30, -21, -9, -9, -2, 9, 9, 14, 23, 23, 28, 35, 37, 44, 51]"
1714325552296169829,"[51, 56, 61, 61, 63, 68, 68, 68, 58, 42, 51, 63, 56, 58, 68, 61, 49, 49, 56, 58, 58, 63, 72, 75, 72, 75, 77, 82, 94, 94, 87, 89, 89, 89, 105, 124, 131, 127, 108, 91, 98, 105, 101, 96, 101, 105, 103, 68, 11, 9, 225, 719, 1192, 1072, 239, -305, -39, 117, -75, -63, 18, -37, -54, -4, 2, -2, 11, 18, 25, 47, 56, 61, 70]"
1714325552857268690,"[77, 94, 110, 119, 122, 119, 98, 89, 105, 122, 117, 101, 94, 82, 51, 14, -16, -51, -75, -72, -65, -68, -72, -72, -61, -39, -25, -16, -11, -9, 0, 11, 18, 25, 35, 32, 35, 44, 47, 21, -16, -23, -4, 2, 7, 21, 23, 14, 23, 39, 42, 44, 47, 42, 47, 61, 72, 75, 70, 68, 72, 77, 87, 91, 84, 77, 89, 103, 110, 105, 91, 72, 68]"
1714325553418398069,"[79, 89, 87, 84, 84, 89, 94, 96, 84, 63, 68, 96, 112, 117, 96, 70, 65, 82, 89, 91, 96, 91, 87, 91, 89, 112, 331, 804, 1194, 971, 150, -284, 0, 94, -103, -63, 23, -18, -18, 18, 14, 9, 25, 30, 32, 39, 51, 65, 82, 91, 101, 122, 145, 164, 185, 206, 211, 204, 195, 188, 174, 152, 117, 58, 7, -16, -37, -68, -87, -84, -84, -82, -70]"
1714325553979527452,"[-63, -61, -51, -47, -39, -30, -47, -54, -30, -11, -9, -2, 4, 14, 18, 18, 25, 35, 35, 35, 35, 23, 18, 23, 21, 9, -7, -16, 0, 9, 7, 14, 28, 32, 32, 35, 42, 51, 54, 54, 61, 63, 63, 70, 75, 75, 77, 77, 82, 87, 82, 82, 89, 91, 94, 110, 117, 98, 79, 72, 75, 82, 87, 87, 87, 87, 91, 89, 77, 192, 595, 1091, 1173]"
1714325554540636487,"[522, -197, -124, 155, 16, -58, 47, 35, -11, 4, 9, 11, 23, 18, 16, 28, 37, 42, 25, 7, 21, 44, 63, 94, 119, 131, 145, 159, 169, 181, 183, 169, 134, 84, 37, -2, -42, -77, -98, -108, -101, -91, -82, -77, -87, -89, -72, -58, -51, -42, -39, -35, -21, -7, 4, 4, 0, 7, 23, 30, 32, 32, 28, 30, 44, 49, 54, 56, 51, 54, 58, 65, 68]"
1714325555101755692,"[63, 58, 63, 63, 51, 54, 61, 51, 54, 70, 56, 21, -2, -4, 7, 21, 30, 30, 30, 30, 39, 51, 61, 63, 58, 56, 65, 77, 82, 84, 79, 77, 87, 94, 94, 89, 77, 72, 82, 96, 115, 129, 124, 103, 89, 91, 94, 84, 70, 72, 82, 82, 77, 65, 51, 164, 576, 1119, 1248, 578, -197, -145, 129, -23, -110, -16, -37, -84, -56, -39, -42, -28, -16]"
1714325555662885071,"[-9, 2, 7, -14, -18, 9, 28, 42, 65, 84, 103, 127, 148, 166, 176, 162, 145, 145, 136, 108, 72, 35, 4, -14, -32, -42, -42, -51, -47, -32, -28, -21, -7, -2, 4, 14, 18, 25, 35, 37, 47, 56, 54, 54, 58, 61, 63, 70, 70, 70, 72, 68, 75, 79, 75, 75, 79, 82, 77, 61, 54, 63, 63, 63, 72, 77, 75, 77, 65, 39, 42, 61, 56]"
1714325556223983932,"[51, 61, 68, 70, 72, 70, 61, 44, 47, 63, 65, 61, 58, 56, 49, 49, 54, 44, 25, 23, 37, 44, 44, 44, 47, 49, 56, 58, 58, 56, 63, 68, 56, 42, 32, 21, 16, 28, 42, 47, 42, 39, 39, 30, 44, 249, 731, 1180, 1037, 216, -312, -49, 105, -96, -91, 9, -23, -28, 16, 9, -18, -21, -4, 21, 30, 28, 42, 65, 84, 105, 117, 119, 143]"
1714325556785113311,"[181, 204, 223, 223, 195, 183, 199, 197, 166, 117, 61, 28, 14, -4, -18, -23, -35, -32, -16, -11, -7, 0, -2, 4, 25, 37, 39, 39, 47, 54, 61, 72, 79, 70, 65, 75, 87, 91, 87, 79, 68, 58, 61, 68, 70, 61, 58, 70, 84, 82, 79, 77, 58, 39, 47, 61, 56, 51, 61, 70, 72, 77, 79, 72, 75, 87, 84, 72, 68, 65, 65, 72, 79]"
1714325557346217263,"[75, 79, 84, 63, 49, 56, 54, 37, 25, 18, 25, 25, 9, 2, 23, 185, 604, 1023, 928, 214, -305, -98, 96, -51, -68, 23, -2, -23, 21, 32, 25, 37, 32, 28, 54, 72, 70, 82, 105, 119, 136, 166, 188, 197, 214, 216, 216, 228, 225, 214, 197, 162, 122, 89, 39, 2, -7, -18, -23, -16, -11, -9, 0, -4, -14, -9, 4, 18, 32, 42, 42, 49, 68]"
1714325557907341555,"[77, 75, 79, 91, 94, 91, 98, 96, 94, 96, 70, 47, 68, 87, 77, 70, 72, 77, 91, 108, 119, 134, 119, 87, 75, 82, 87, 94, 96, 91, 98, 110, 108, 98, 124, 329, 736, 983, 686, 21, -235, 39, 112, -42, -14, 47, 9, 14, 47, 35, 30, 49, 56, 63, 72, 65, 58, 68, 72, 84, 96, 105, 129, 152, 166, 181, 192, 192, 176, 152, 124, 84, 35]"
1714325558468455677,"[-11, -49, -70, -77, -79, -77, -72, -91, -110, -89, -63, -61, -51, -47, -51, -49, -25, -11, -14, -14, -2, 11, 16, 25, 30, 21, 18, 30, 42, 39, 18, -14, -11, 11, 11, 16, 23, 16, 21, 32, 39, 47, 47, 39, 39, 47, 54, 58, 68, 65, 51, 47, 47, 51, 51, 44, 49, 63, 70, 72, 63, 44, 117, 460, 983, 1206, 691, -115, -206, 115, 49, -82, 2]"
1714325559029569795,"[23, -16, 14, 44, 35, 25, 23, 37, 58, 65, 61, 47, 47, 58, 77, 96, 112, 127, 145, 171, 188, 192, 178, 148, 129, 115, 77, 28, -18, -58, -94, -115, -117, -112, -115, -110, -105, -110, -110, -98, -87, -82, -72, -56, -42, -32, -28, -21, -11, -2, 7, 7, 7, 14, 18, 18, 25, 28, 28, 35, 37, 39, 44, 47, 49, 51, 51, 56, 63, 56, 47, 54, 58]"
1714325559590699174,"[58, 63, 65, 65, 68, 68, 70, 65, 49, 44, 56, 54, 56, 70, 79, 77, 61, 44, 39, 32, 30, 42, 49, 44, 51, 61, 58, 56, 30, 37, 312, 879, 1300, 990, 89, -291, 30, 77, -110, -47, 21, -32, -23, 16, 11, 18, 37, 42, 47, 54, 65, 79, 91, 98, 110, 124, 143, 169, 188, 199, 204, 209, 218, 223, 218, 199, 164, 122, 84, 56, 25, -4, -30]"
1714325560151828557,"[-39, -32, -25, -23, -32, -47, -47, -32, -42, -65, -58, -44, -39, -30, -28, -37, -42, -47, -47, -47, -54, -51, -47, -47, -37, -25, -18, -16, -18, -16, -4, 7, 11, 14, 11, 14, 25, 37, 42, 42, 39, 42, 54, 58, 63, 65, 56, 58, 72, 77, 77, 65, 49, 51, 68, 75, 77, 77, 70, 75, 87, 91, 96, 94, 84, 89, 101, 103, 108, 103, 94, 98, 108]"
1714325560712932505,"[96, 68, 56, 58, 65, 72, 79, 75, 56, 47, 61, 72, 68, 58, 42, 32, 42, 56, 61, 63, 63, 61, 68, 63, 49, 183, 637, 1206, 1307, 569, -206, -115, 136, -37, -94, 21, 7, -28, 7, 21, 16, 35, 39, 23, 25, 42, 54, 68, 84, 94, 103, 119, 141, 162, 183, 195, 202, 209, 216, 221, 214, 188, 143, 98, 68, 32, -21, -63, -68, -65, -63, -54, -44]"
1714325561274056797,"[-44, -49, -56, -54, -51, -54, -56, -58, -54, -42, -37, -51, -61, -49, -39, -37, -30, -25, -21, -16, -11, -4, 2, 4, 9, 14, 18, 23, 30, 32, 35, 44, 44, 37, 25, 25, 37, 44, 42, 49, 56, 56, 58, 65, 70, 72, 75, 75, 79, 84, 84, 89, 89, 91, 98, 101, 98, 103, 105, 87, 65, 72, 79, 75, 75, 70, 61, 61, 68, 68, 68, 75, 89]"
1714325561835186176,"[105, 115, 117, 105, 91, 89, 89, 87, 72, 58, 63, 77, 77, 65, 42, 108, 465, 1025, 1286, 759, -94, -206, 122, 49, -98, -21, -2, -42, -7, 21, 11, 11, 11, 16, 37, 54, 58, 58, 68, 87, 105, 122, 136, 145, 162, 185, 199, 192, 185, 171, 152, 141, 101, 37, -2, -32, -77, -103, -108, -101, -101, -105, -94, -77, -65, -54, -47, -44, -35, -16, -7, 2, 9]"
1714325562396305385,"[4, 9, 25, 35, 39, 28, 4, 4, 25, 32, 32, 32, 30, 30, 44, 42, 28, 23, 23, 28, 39, 49, 56, 54, 49, 58, 68, 72, 77, 72, 65, 72, 84, 89, 89, 84, 79, 84, 96, 103, 101, 94, 91, 94, 84, 58, 58, 68, 51, 44, 61, 58, 42, 42, 47, 47, 54, 68, 82, 87, 87, 77, 65, 65, 68, 58, 49, 49, 49, 37, 25, 14, 9]"
1714325562957414416,"[148, 573, 1063, 1074, 359, -286, -131, 84, -98, -150, -51, -70, -89, -37, -18, -25, -11, 4, 14, 30, 42, 47, 61, 75, 87, 110, 129, 143, 164, 183, 202, 218, 221, 218, 218, 211, 185, 134, 72, 28, 2, -23, -42, -47, -42, -35, -32, -35, -30, -18, -18, -21, 11, 49, 47, 37, 56, 87, 84, 51, 51, 72, 79, 75, 79, 91, 89, 84, 82, 82, 72, 54, 54]"
1714325563518543795,"[61, 61, 68, 82, 79, 65, 42, 25, 37, 49, 44, 47, 47, 49, 58, 56, 54, 58, 58, 61, 68, 58, 49, 54, 47, 37, 51, 54, 44, 25, 0, -2, 16, 25, 35, 54, 58, 39, 25, 32, 42, 42, 39, 51, 63, 63, 63, 61, 127, 442, 912, 1086, 597, -127, -202, 115, 79, -54, 18, 56, 18, 30, 47, 32, 37, 54, 61, 75, 94, 91, 89, 115, 138]"
1714325564079673178,"[148, 166, 190, 183, 171, 197, 230, 237, 235, 216, 199, 185, 159, 129, 89, 37, 4, -2, -9, -11, -16, -30, -44, -49, -51, -37, -28, -30, -23, -4, 11, 18, 23, 21, 25, 42, 61, 58, 56, 54, 58, 70, 70, 65, 63, 56, 54, 51, 51, 54, 44, 37, 39, 32, 32, 44, 47, 37, 37, 49, 51, 39, 18, 7, 11, 11, -9, -16, 9, 11, 4, 61, 129]"
1714325564640772039,"[105, 56, 47, 42, 37, 44, 49, 39, 37, 47, 56, 49, 30, 136, 536, 1023, 1060, 385, -298, -204, 58, -70, -124, -14, -28, -68, -23, -2, -4, 16, 30, 30, 35, 47, 68, 82, 79, 105, 141, 148, 166, 197, 206, 209, 209, 204, 211, 206, 188, 166, 134, 87, 51, 21, -4, -18, -25, -25, -21, -16, -9, -2, 4, 16, 23, 23, 30, 39, 44, 47, 56, 61, 61]"
1714325565201901418,"[63, 63, 61, 51, 39, 47, 51, 42, 18, -11, -28, -25, -21, -7, 7, -7, 0, 37, 47, 35, 37, 44, 54, 58, 63, 68, 63, 58, 68, 87, 75, 51, 68, 94, 101, 101, 91, 68, 54, 51, 58, 61, 49, 42, 47, 47, 49, 49, 49, 197, 635, 1095, 1030, 296, -261, -58, 129, -58, -84, 9, -32, -61, -18, -14, -18, 4, 14, -4, -11, 9, 28, 39, 51]"
1714325565763030797,"[54, 49, 58, 87, 119, 141, 148, 141, 141, 162, 169, 150, 127, 87, 42, 18, 7, -18, -47, -49, -39, -32, -28, -21, -18, -16, -16, -14, -4, 7, 7, 11, 28, 37, 47, 51, 47, 54, 70, 72, 65, 68, 68, 72, 82, 87, 84, 87, 82, 79, 91, 101, 101, 98, 96, 98, 103, 103, 96, 84, 77, 77, 89, 101, 105, 96, 70, 58, 89, 119, 117, 89, 68]"
1714325566324129658,"[72, 87, 91, 91, 89, 82, 91, 103, 101, 94, 159, 463, 931, 1112, 632, -101, -211, 82, 42, -75, 14, 39, -11, 11, 47, 44, 54, 70, 68, 77, 94, 103, 103, 101, 108, 122, 143, 169, 190, 206, 221, 228, 235, 237, 228, 214, 183, 131, 79, 25, -39, -77, -82, -91, -98, -84, -77, -79, -89, -108, -108, -82, -68, -70, -58, -42, -25, -11, -11, -9, 2, 2, 2]"
1714325566885259037,"[16, 28, 37, 37, 30, 35, 39, 16, -11, -14, -7, 2, 14, 11, 14, 23, 28, 37, 47, 42, 47, 70, 91, 101, 77, 44, 47, 79, 91, 87, 82, 84, 91, 91, 82, 68, 131, 446, 957, 1201, 710, -110, -249, 91, 68, -68, 14, 49, -2, 14, 49, 32, 4, 9, 35, 61, 77, 79, 70, 68, 84, 127, 178, 183, 155, 197, 265, 263, 254, 279, 268, 223, 192]"
1714325567446393507,"[150, 94, 51, 16, -23, -51, -49, -37, -37, -39, -35, -30, -21, -11, -7, 2, 7, 0, 4, 16, 16, 11, 16, 23, 39, 54, 44, 25, 28, 37, 39, 32, 7, -9, -16, -21, -14, -4, -4, -9, -9, 0, 7, 11, 2, -28, -32, -9, -4, -2, 9, 11, 7, 14, 25, 30, 39, 58, 75, 75, 61, 54, 54, 44, 30, 35, 49, 49, 54, 56, 39, 51, 289]"
1714325568007517799,"[832, 1298, 1058, 166, -291, 23, 134, -68, -35, 49, 2, 4, 51, 28, -9, 11, 39, 39, 35, 30, 49, 82, 89, 101, 127, 124, 119, 157, 202, 209, 214, 218, 204, 190, 190, 181, 141, 79, 16, -21, -28, -32, -39, -39, -32, -25, -14, 0, 2, -2, 4, 18, 28, 35, 35, 21, 21, 37, 39, 37, 44, 39, 25, 42, 65, 47, 21, 28, 39, 37, 35, 39, 39]"
1714325568568631921,"[37, 42, 51, 56, 56, 54, 47, 37, 32, 30, 11, -14, -18, -18, -30, -23, -9, -35, -51, -21, -4, -7, 0, 4, 4, 9, 18, 25, 32, 47, 51, 35, 25, 23, 9, 25, 49, 21, 2, 39, 61, 44, 42, 39, 82, 371, 900, 1225, 816, -42, -268, 72, 58, -103, -18, 25, -23, -4, 25, 21, 30, 42, 49, 61, 63, 77, 98, 103, 115, 129, 143, 164, 183]"
1714325569129766387,"[197, 214, 225, 225, 221, 211, 204, 185, 134, 79, 54, 23, -16, -32, -37, -35, -28, -23, -18, -7, 2, 9, 14, 2, -25, -32, -7, 9, 16, 14, -4, -14, -2, 9, 18, 23, 14, 2, 9, 25, 32, 21, 14, 21, 21, 16, 18, 16, 2, -2, 9, 14, 11, 16, 11, 9, 18, 32, 37, 35, 32, 35, 44, 61, 70, 68, 58, 61, 68, 63, 61, 68, 61]"
1714325569690875418,"[54, 65, 79, 82, 75, 54, 32, 47, 82, 96, 89, 94, 101, 87, 72, 75, 47, 16, 39, 70, 68, 39, 16, 35, 91, 228, 580, 1053, 1168, 550, -192, -159, 138, 32, -68, 11, 16, -9, 28, 51, 44, 42, 56, 68, 77, 89, 94, 98, 115, 136, 145, 164, 195, 211, 216, 225, 237, 251, 261, 237, 218, 209, 166, 124, 89, 16, -54, -44, 9, 2, -37, -32, -16]"
1714325570252004797,"[-21, -25, -25, -23, -18, -2, 28, 32, 0, -30, -42, -37, -23, -21, -42, -61, -49, -37, -44, -39, -32, -49, -49, -18, -7, -16, -11, -11, -14, 2, 18, 23, 23, 23, 30, 37, 37, 44, 56, 54, 54, 65, 65, 54, 51, 44, 65, 134, 150, 117, 94, 42, -23, 4, 110, 136, 82, 75, 94, 82, 70, 75, 232, 693, 1173, 1100, 326, -251, -30, 159, -16, -28, 61]"
1714325570813134180,"[25, -9, 2, 7, 11, 16, 7, 9, 28, 28, 25, 32, 47, 70, 87, 103, 124, 138, 157, 185, 202, 206, 206, 195, 176, 152, 105, 44, 0, -18, -35, -47, -51, -54, -54, -49, -42, -25, -9, -14, -11, -4, -23, -37, -30, -37, -44, -28, -4, -4, -9, -9, -11, -11, 0, 4, 9, 9, 11, 25, 35, 32, 30, 30, 32, 42, 44, 28, 4, 7, 16, 16, 21]"
1714325571374263559,"[30, 18, 2, 9, 21, 21, 30, 35, 9, -11, 18, 54, 47, 32, 37, 35, 42, 58, 70, 87, 103, 105, 89, 77, 77, 77, 70, 72, 87, 94, 94, 94, 79, 65, 159, 547, 1074, 1187, 531, -197, -124, 157, 18, -68, 25, 25, 4, 44, 63, 49, 47, 58, 72, 77, 75, 75, 72, 79, 105, 119, 101, 91, 119, 150, 159, 164, 169, 164, 145, 127, 108, 70, 23]"
1714325571935362420,"[-18, -56, -75, -84, -87, -77, -79, -87, -75, -54, -44, -49, -65, -61, -37, -25, -21, -11, -7, 0, 11, 18, 21, 30, 25, 11, 16, 35, 42, 35, 32, 42, 54, 58, 58, 58, 58, 58, 70, 82, 82, 79, 77, 75, 84, 91, 87, 84, 91, 94, 89, 94, 87, 65, 63, 65, 54, 51, 58, 56, 58, 65, 68, 72, 75, 72, 77, 89, 108, 124, 122, 96, 77]"
1714325572496491799,"[84, 94, 96, 89, 89, 96, 98, 91, 72, 82, 315, 813, 1178, 881, 63, -275, 16, 65, -101, -44, 11, -35, -18, 16, 2, 9, 32, 35, 42, 54, 51, 49, 51, 51, 56, 75, 89, 108, 129, 143, 157, 164, 164, 178, 178, 138, 87, 28, -21, -47, -68, -82, -84, -89, -89, -77, -70, -58, -44, -42, -37, -30, -18, 0, 16, 18, 23, 30, 30, 35, 47, 47, 47]"
1714325573057621178,"[49, 49, 58, 65, 63, 51, 44, 42, 51, 65, 61, 47, 39, 37, 44, 54, 54, 54, 54, 56, 68, 77, 77, 75, 72, 77, 84, 87, 87, 89, 89, 91, 101, 105, 101, 98, 94, 87, 63, 42, 44, 51, 63, 87, 105, 108, 89, 63, 61, 72, 79, 84, 84, 75, 75, 84, 89, 112, 303, 733, 1112, 938, 178, -261, 0, 134, -18, -2, 32, -21, -4, 28, 16]"
1714325573618750561,"[18, 44, 54, 39, 35, 49, 56, 56, 70, 63, 47, 75, 110, 131, 155, 166, 162, 169, 176, 164, 145, 115, 75, 35, 11, -9, -30, -47, -58, -70, -87, -108, -110, -94, -84, -72, -56, -42, -23, -18, -18, -7, 0, 4, 9, 14, 25, 39, 47, 42, 39, 37, 35, 49, 63, 58, 56, 58, 58, 63, 68, 61, 44, 42, 51, 56, 58, 65, 65, 63, 68, 72, 77]"
1714325574179854509,"[77, 77, 77, 77, 79, 89, 77, 54, 65, 91, 98, 96, 82, 63, 63, 65, 68, 77, 79, 77, 68, 54, 37, 35, 192, 644, 1084, 947, 174, -303, -39, 105, -75, -70, 18, -7, -18, 18, 23, 16, 39, 51, 32, 42, 68, 70, 68, 89, 101, 110, 129, 150, 159, 162, 169, 192, 197, 176, 164, 145, 98, 58, 16, -28, -44, -51, -65, -72, -68, -63, -63, -63, -54]"
1714325574740978801,"[-32, -23, -25, -14, -7, 0, 11, 11, 11, 9, -9, -16, -11, -9, -4, -7, -21, -32, -21, -9, -14, -16, 2, 25, 21, 11, 28, 30, 37, 56, 54, 54, 68, 70, 65, 70, 75, 79, 77, 75, 77, 87, 89, 79, 68, 65, 70, 75, 75, 70, 72, 75, 77, 72, 75, 103, 115, 110, 127, 134, 119, 101, 87, 89, 101, 103, 103, 105, 105, 98, 91, 94, 256]"
1714325575302108180,"[698, 1164, 1107, 348, -258, -61, 112, -103, -141, -51, -91, -105, -58, -56, -58, -30, -4, 4, 11, 16, 21, 21, 30, 44, 56, 68, 82, 108, 138, 155, 155, 157, 164, 178, 178, 124, 47, 18, 16, -14, -51, -61, -61, -63, -58, -49, -30, -14, -14, -18, -4, 14, 25, 32, 30, 18, 21, 56, 77, 58, 49, 70, 91, 89, 75, 77, 72, 49, 49, 65, 68, 68, 65]"
1714325575863237559,"[65, 68, 49, 25, 28, 39, 37, 37, 54, 63, 42, 18, 25, 42, 54, 63, 70, 63, 58, 72, 94, 105, 112, 96, 44, 37, 79, 75, 63, 68, 63, 89, 105, 72, 54, 122, 395, 865, 1121, 698, -39, -174, 129, 110, -23, 44, 77, 35, 54, 77, 68, 65, 70, 70, 77, 84, 82, 84, 98, 115, 127, 138, 155, 159, 181, 211, 211, 188, 148, 112, 138, 150, 87]"
1714325576424336420,"[39, 7, -44, -79, -98, -105, -89, -91, -110, -101, -79, -79, -77, -63, -51, -39, -39, -49, -51, -42, -30, -14, 0, 2, 2, 0, 0, 18, 39, 23, 7, 28, 42, 44, 51, 49, 54, 65, 65, 70, 72, 68, 72, 79, 79, 84, 82, 82, 82, 72, 70, 96, 117, 105, 79, 68, 72, 72, 68, 75, 70, 42, 28, 42, 37, 30, 209, 672, 1124, 1008, 214, -312, -42]"
1714325576985465799,"[141, -49, -49, 54, -4, -51, -2, 18, 2, 4, 9, 9, 25, 49, 65, 75, 79, 91, 117, 143, 166, 185, 195, 209, 225, 235, 225, 197, 176, 150, 101, 58, 32, -2, -39, -49, -42, -35, -32, -30, -37, -51, -47, -37, -44, -51, -47, -32, -23, -18, -14, -16, -21, -28, -39, -32, -21, -23, -25, -14, -4, 0, 4, 0, 2, 14, 21, 23, 28, 28, 28, 32, 28]"
1714325577546595182,"[21, 28, 32, 28, 35, 44, 49, 39, 23, 21, 35, 42, 47, 49, 42, 47, 63, 79, 101, 112, 96, 70, 63, 72, 82, 82, 75, 70, 77, 89, 87, 61, 108, 432, 968, 1239, 757, -75, -218, 108, 54, -84, 14, 44, -11, 7, 21, -11, -4, 25, 28, 25, 44, 63, 63, 68, 84, 103, 127, 148, 164, 181, 195, 190, 188, 206, 209, 190, 174, 138, 91, 61, 28]"
1714325578107724561,"[-2, -25, -37, -42, -37, -35, -25, -18, -21, -14, -7, -23, -28, -9, -4, -4, -4, -9, -4, -4, -18, -16, -16, -28, -23, -16, -14, -11, -7, -2, 4, 7, 7, 11, 14, 16, 28, 35, 21, -7, -11, 7, 16, 18, 23, 25, 25, 35, 49, 51, 47, 54, 63, 61, 54, 42, 44, 51, 54, 58, 68, 79, 94, 108, 110, 98, 84, 77, 79, 84, 91, 96, 96]"
1714325578668823422,"[96, 98, 87, 96, 282, 733, 1157, 1030, 251, -289, -35, 155, -37, -68, 11, -11, -14, 25, 28, 21, 35, 49, 63, 79, 89, 91, 98, 119, 143, 155, 148, 141, 152, 181, 204, 218, 221, 202, 188, 190, 164, 108, 56, 14, -18, -42, -65, -75, -70, -68, -63, -49, -32, -23, -28, -39, -42, -25, -21, -32, -35, -25, -14, -4, 0, 11, 9, -4, 4, 21, 23, 25, 30]"
1714325579229952801,"[16, 11, 28, 32, 14, -4, -2, 16, 35, 42, 35, 14, 0, 16, 30, 30, 32, 32, 30, 44, 56, 58, 63, 54, 35, 47, 79, 84, 54, 56, 77, 51, 21, 51, 75, 49, 30, 39, 44, 37, 138, 512, 1008, 1126, 526, -195, -159, 134, 11, -87, 25, 39, -2, 21, 44, 42, 51, 65, 77, 87, 94, 101, 115, 127, 134, 143, 155, 166, 192, 209, 204, 216, 221]"
1714325579791082180,"[230, 256, 237, 174, 131, 91, 47, 21, -9, -49, -58, -49, -44, -35, -30, -44, -72, -82, -63, -51, -56, -47, -32, -28, -21, -4, 2, -9, -21, -18, -9, -9, -18, -28, -30, -32, -28, -25, -23, -14, -7, -9, -4, 0, 2, 7, 21, 25, 21, 21, 25, 35, 44, 44, 44, 49, 49, 56, 58, 39, 25, 37, 56, 61, 58, 56, 58, 63, 63, 68, 84, 98, 108]"
1714325580352211563,"[110, 101, 87, 75, 77, 79, 65, 63, 61, 21, -9, 0, 21, 157, 573, 1107, 1218, 522, -237, -145, 134, -30, -119, -9, -7, -35, 14, 28, 14, 30, 51, 58, 70, 87, 87, 89, 108, 119, 134, 155, 162, 174, 202, 225, 242, 249, 244, 237, 228, 211, 166, 103, 47, 16, -2, -11, -21, -25, -35, -37, -23, -7, 4, 7, 4, 9, 18, 18, 14, 11, -2, -11, -7]"
1714325580913315511,"[4, 0, -32, -65, -63, -44, -35, -35, -28, -30, -39, -35, -21, -16, -16, -14, -4, 0, 9, 21, 21, 18, 32, 37, 42, 58, 56, 39, 44, 63, 70, 72, 72, 65, 75, 84, 87, 91, 89, 84, 89, 89, 75, 70, 75, 82, 105, 129, 131, 112, 89, 77, 89, 98, 103, 105, 98, 91, 96, 98, 115, 289, 719, 1154, 1074, 324, -235, -25, 138, -49, -56, 44, 16]"
1714325581474439803,"[4, 30, 23, 28, 51, 65, 65, 68, 72, 77, 77, 82, 87, 94, 108, 134, 164, 181, 190, 199, 209, 211, 209, 199, 162, 96, 39, 9, -23, -56, -75, -79, -84, -87, -79, -77, -72, -63, -58, -49, -32, -23, -21, -9, -4, 7, 18, 23, 28, 39, 47, 42, 47, 54, 54, 51, 51, 51, 51, 54, 49, 21, 16, 37, 32, 23, 30, 35, 35, 37, 47, 49, 47]"
1714325582035569182,"[58, 61, 58, 61, 68, 84, 105, 103, 79, 54, 47, 61, 63, 47, 51, 68, 70, 70, 70, 61, 103, 378, 870, 1175, 797, -35, -286, 58, 87, -79, -11, 39, -9, 4, 42, 47, 47, 63, 75, 77, 87, 103, 108, 110, 122, 138, 157, 181, 202, 204, 206, 223, 225, 197, 178, 166, 131, 89, 54, 18, -14, -49, -72, -70, -63, -72, -87, -91, -89, -82, -87, -82, -49]"
1714325582596688391,"[-32, -49, -49, -11, -9, -30, -16, -25, -32, 7, 37, 32, 16, 16, 18, 9, 2, 2, -2, 2, 18, 25, 28, 30, 25, 28, 39, 51, 58, 51, 37, 42, 58, 65, 70, 70, 63, 58, 63, 89, 115, 101, 79, 87, 101, 110, 98, 68, 49, 39, 32, 44, 58, 56, 47, 58, 70, 70, 65, 54, 157, 559, 1103, 1234, 571, -190, -129, 152, 16, -65, 35, 23, -14]"
1714325583157797422,"[28, 49, 37, 51, 58, 49, 44, 51, 79, 89, 61, 65, 101, 122, 134, 152, 169, 174, 166, 169, 221, 249, 171, 122, 145, 115, 39, 18, 9, -25, -30, -21, -30, -23, -9, -18, -23, -11, -28, -68, -63, -39, -37, -32, -21, -21, -18, -11, -9, 0, 7, 11, 11, 7, 9, 21, 21, 14, 23, 32, 32, 32, 37, 42, 47, 44, 47, 51, 49, 44, 49, 44, 35]"
1714325583718926801,"[39, 51, 58, 61, 63, 75, 79, 54, 44, 63, 65, 63, 68, 68, 65, 70, 79, 94, 112, 117, 101, 84, 72, 72, 75, 70, 89, 98, 89, 79, 58, 23, 89, 449, 985, 1185, 635, -157, -209, 112, 25, -98, -2, 11, -21, 23, 37, 23, 32, 51, 65, 75, 79, 82, 96, 117, 122, 122, 129, 143, 164, 176, 181, 197, 211, 209, 197, 192, 183, 136, 87, 49, 2]"
1714325584280056184,"[-32, -47, -65, -91, -112, -103, -84, -82, -79, -72, -61, -51, -39, -25, -18, -14, -4, 2, 11, 16, 4, -7, -4, -7, -30, -23, 0, -11, -16, 4, 9, 16, 25, 25, 25, 32, 44, 54, 56, 54, 51, 63, 79, 77, 70, 65, 79, 108, 122, 129, 115, 75, 56, 54, 63, 79, 75, 63, 68, 84, 89, 82, 155, 468, 950, 1157, 651, -119, -190, 134, 79, -49, 37]"
1714325584841155045,"[70, 18, 32, 65, 65, 70, 87, 91, 84, 91, 110, 108, 101, 94, 89, 117, 136, 127, 143, 169, 181, 195, 204, 197, 174, 141, 101, 51, 16, -7, -39, -70, -82, -70, -61, -58, -54, -51, -42, -32, -25, -11, -7, -11, -16, -18, -14, -21, -28, -18, -9, -14, -4, 0, -4, -4, 0, 2, 7, 16, 14, 11, 18, 23, 28, 35, 32, 35, 37, 39, 54, 63, 58]"
1714325585402284424,"[54, 58, 54, 42, 42, 47, 44, 44, 42, 23, -2, -9, -2, 7, 16, 30, 47, 61, 68, 58, 42, 35, 42, 58, 63, 63, 70, 77, 72, 61, 54, 195, 649, 1190, 1218, 451, -249, -96, 136, -42, -77, 37, 11, -23, 25, 42, 21, 42, 65, 58, 65, 82, 82, 91, 110, 129, 136, 150, 176, 192, 211, 232, 237, 235, 232, 246, 249, 206, 143, 82, 42, 28, 9]"
1714325585963383285,"[-18, -30, -47, -56, -47, -47, -56, -65, -87, -82, -54, -44, -44, -37, -28, -18, -16, -14, -4, 4, -2, -9, -7, -16, -21, -16, -25, -28, -16, -11, -11, -7, 2, 4, 9, 14, 14, 18, 25, 32, 39, 42, 37, 37, 47, 56, 61, 63, 56, 54, 63, 70, 77, 87, 89, 87, 87, 82, 68, 65, 72, 84, 103, 119, 115, 91, 70, 58, 37, 35, 47, 47, 54]"
1714325586524512664,"[68, 63, 49, 108, 406, 912, 1220, 809, -42, -254, 77, 42, -117, -18, 30, -16, -2, 16, 2, 16, 44, 54, 56, 56, 65, 91, 108, 122, 131, 136, 159, 188, 216, 235, 242, 244, 246, 242, 228, 199, 157, 108, 68, 39, 11, -7, -18, -25, -28, -35, -37, -32, -35, -35, -32, -42, -49, -44, -28, -30, -56, -61, -35, -25, -32, -32, -28, -16, 0, 4, -7, -9, 11]"
1714325587085642043,"[32, 21, 21, 49, 49, 30, 37, 51, 42, 35, 51, 58, 54, 56, 42, 30, 37, 51, 58, 63, 61, 70, 94, 112, 117, 108, 84, 82, 91, 91, 87, 91, 101, 98, 91, 96, 108, 223, 595, 1055, 1093, 437, -223, -122, 143, 18, -49, 49, 44, 9, 49, 72, 58, 47, 30, 32, 56, 70, 68, 75, 110, 127, 124, 148, 192, 211, 214, 235, 265, 261, 249, 239, 195]"
1714325587646745995,"[141, 112, 75, 18, -25, -68, -94, -91, -84, -87, -77, -61, -61, -56, -44, -47, -32, -14, -14, -18, -23, -21, -25, -30, -16, -4, -7, -9, -16, -11, -2, -9, -21, -18, -7, -2, 0, 9, 7, 4, 9, 14, 23, 25, 25, 35, 21, 7, 16, 30, 32, 28, 32, 35, 35, 54, 72, 84, 94, 77, 58, 61, 70, 54, 30, 39, 56, 56, 56, 47, 47, 178, 576]"
1714325588207870287,"[1105, 1232, 559, -204, -136, 166, 21, -79, 11, -9, -39, 14, 30, 16, 21, 32, 49, 58, 70, 79, 77, 87, 91, 101, 131, 145, 150, 176, 206, 225, 228, 223, 214, 199, 183, 143, 101, 61, 14, -16, -42, -56, -44, -49, -56, -37, -18, -11, -4, -16, -30, -16, 7, 7, -9, -18, -11, 4, 14, 16, 18, 16, 16, 21, 18, 9, 7, -2, -11, -4, 2, 7, 9]"
1714325588768999666,"[9, 7, 14, 23, 28, 30, 28, 25, 35, 44, 44, 30, 7, -4, 4, 18, 21, 21, 21, 28, 39, 47, 44, 35, 39, 58, 82, 103, 105, 84, 65, 56, 37, 21, 30, 39, 42, 47, 58, 49, 44, 199, 649, 1145, 1143, 388, -275, -98, 129, -49, -84, 25, 0, -23, 18, 28, 25, 49, 58, 58, 72, 84, 91, 103, 112, 124, 143, 157, 176, 199, 216, 228, 242]"
1714325589330129045,"[246, 246, 249, 230, 183, 127, 72, 30, 4, -16, -30, -32, -30, -25, -32, -49, -42, -25, -16, -4, -7, -18, -14, -4, -18, -42, -61, -56, -39, -32, -32, -28, -21, -16, -9, -9, -21, -28, -16, -4, -2, 0, 9, 18, 18, 21, 39, 49, 44, 47, 49, 49, 61, 70, 70, 70, 75, 82, 87, 89, 91, 91, 87, 91, 103, 105, 110, 129, 134, 119, 108, 94, 87]"
1714325589891253341,"[91, 98, 98, 98, 101, 94, 72, 58, 84, 284, 733, 1131, 968, 204, -256, 16, 166, -23, -28, 32, -4, 9, 49, 32, 28, 56, 68, 61, 58, 65, 70, 91, 129, 148, 143, 141, 171, 221, 246, 249, 251, 251, 239, 242, 235, 195, 143, 89, 35, 2, -9, -7, -14, -39, -35, -14, -9, -11, -21, -28, -25, -7, 4, -7, -11, -18, -25, -16, 2, 16, 4, -7, 7]"
1714325590452357285,"[9, 4, 14, -2, -18, -7, 7, 28, 51, 42, -9, -37, -28, -28, -4, 7, -14, -9, 4, -9, 0, 18, 30, 61, 72, 56, 37, 28, 35, 44, 49, 54, 63, 61, 51, 49, 44, 134, 503, 1020, 1187, 590, -185, -171, 145, 28, -82, 23, 39, 2, 28, 39, 25, 47, 68, 63, 65, 84, 89, 101, 131, 138, 141, 164, 181, 202, 235, 246, 244, 251, 249, 237, 221]"
1714325591013486668,"[185, 134, 87, 30, -25, -54, -72, -96, -94, -87, -94, -87, -82, -87, -61, -37, -32, -14, 2, -7, -21, -11, 4, 2, 9, 25, 21, 14, 30, 39, 28, 28, 39, 37, 32, 32, 23, 18, 14, 4, 9, 7, 0, 7, 11, 9, 14, 14, 11, 21, 30, 32, 35, 35, 30, 42, 68, 77, 87, 91, 72, 58, 54, 49, 51, 63, 70, 77, 70, 37, 4, 4, 141]"
1714325591574595703,"[564, 1095, 1159, 437, -270, -138, 112, -51, -112, -23, -54, -75, -18, -2, -14, 0, 18, 25, 39, 54, 58, 70, 87, 101, 119, 143, 159, 171, 190, 223, 239, 235, 221, 204, 195, 178, 136, 91, 51, 16, 0, -2, 2, 2, -2, 0, 7, 11, 18, 23, 21, 23, 37, 44, 35, 28, 21, 23, 39, 47, 47, 42, 21, 2, 0, -2, -2, -2, -14, -21, -18, -14, -16]"
1714325592135714908,"[-25, -35, -32, -16, 2, 16, 2, -21, -7, 23, 32, 18, -9, -18, 0, 14, 18, 28, 32, 21, 23, 54, 82, 82, 54, 25, 23, 32, 42, 49, 47, 39, 56, 68, 70, 68, 84, 296, 778, 1173, 943, 134, -272, 23, 131, -42, -11, 58, 14, 18, 68, 68, 65, 82, 70, 28, 11, 39, 65, 65, 79, 103, 117, 143, 166, 181, 204, 216, 225, 237, 235, 218, 199]"
1714325592696834117,"[169, 131, 89, 49, 18, 7, -4, -14, -7, -16, -35, -32, -14, -4, -23, -58, -49, -2, 7, -2, 11, 16, 7, 14, 21, 28, 51, 49, 32, 32, 28, 21, 14, -7, -11, -7, -2, 9, 11, 11, 16, 18, 21, 25, 30, 25, 18, 14, 2, 2, 2, -21, -21, -7, -7, 0, 9, 14, 21, 32, 35, 23, 84, 413, 938, 1164, 639, -157, -228, 115, 56, -77, 11]"
1714325593257943148,"[42, -4, 16, 51, 42, 39, 32, 14, 16, 39, 56, 65, 75, 89, 108, 131, 155, 174, 190, 204, 225, 244, 242, 223, 202, 169, 124, 84, 51, 18, -4, -16, -16, -16, -16, -9, -2, -11, -23, -14, -7, -30, -49, -35, -9, 7, 11, 11, 16, 25, 37, 44, 49, 49, 42, 42, 56, 56, 35, 21, 30, 35, 37, 44, 49, 44, 39, 49, 58, 47, 32, 25, 28]"
1714325593819072527,"[25, 11, 16, 9, -21, -32, -23, -11, 2, 14, 23, 28, 35, 35, 25, 21, 14, 9, 25, 47, 51, 44, 35, 28, 51, 284, 813, 1260, 1008, 124, -296, 23, 112, -94, -79, -11, -42, -30, 4, -7, -16, 9, 35, 42, 51, 56, 56, 75, 103, 124, 134, 143, 164, 183, 204, 225, 232, 230, 223, 218, 197, 150, 103, 56, 21, 4, -9, -14, -14, -21, -18, -7, 9]"
1714325594380171392,"[14, 14, 25, 28, 30, 44, 47, 32, 23, 30, 37, 32, 39, 47, 54, 54, 49, 56, 65, 61, 44, 32, 44, 58, 54, 37, 11, -11, -2, 7, 0, 9, 18, 14, 18, 30, 32, 28, 32, 32, 28, 28, 23, 7, -7, 0, 21, 25, 28, 37, 25, 9, 7, 0, -4, 14, 39, 54, 51, 42, 28, 25, 35, 37, 44, 49, 47, 49, 56, 49, 49, 221, 686]"
1714325594941300771,"[1175, 1121, 336, -268, -54, 129, -56, -61, 32, 2, -11, 11, 9, 21, 44, 35, 23, 42, 49, 25, 7, 16, 42, 61, 79, 115, 136, 148, 166, 181, 195, 204, 195, 178, 152, 117, 79, 49, 21, -4, -16, -9, -7, -18, -28, -25, -16, -2, 21, 23, 16, 28, 37, 42, 39, 35, 37, 32, 32, 44, 49, 58, 56, 32, 39, 63, 61, 56, 56, 49, 35, 28, 21]"
1714325595502430150,"[21, 32, 11, -11, 7, 23, 18, 2, -14, -9, 0, -14, -35, -37, -21, -7, 14, 44, 51, 37, 23, 18, 25, 35, 47, 47, 39, 51, 61, 68, 82, 96, 298, 776, 1124, 830, 54, -270, 21, 94, -63, -7, 61, -2, 4, 68, 61, 54, 89, 98, 77, 68, 94, 122, 122, 127, 148, 169, 188, 209, 218, 228, 239, 249, 254, 256, 225, 176, 138, 105, 70, 42, 4]"
1714325596063559529,"[-25, -28, -16, -14, -32, -63, -72, -51, -37, -35, -35, -42, -42, -21, -7, -9, -16, -21, -11, 2, 11, 16, 9, 2, -2, -9, -9, 4, 9, -2, 0, 4, 0, -9, -21, -28, -21, -9, -4, 0, 4, 2, -2, 7, 25, 37, 49, 61, 63, 47, 30, 30, 37, 37, 39, 47, 51, 42, 28, 25, 32, 209, 698, 1197, 1086, 254, -303, -44, 124, -72, -91, -14, -44]"
1714325596624683825,"[-51, -11, -2, 4, 25, 28, 35, 51, 61, 65, 72, 91, 129, 141, 124, 134, 150, 152, 169, 190, 183, 178, 181, 164, 129, 89, 49, 21, 7, -9, -18, -18, -21, -11, -7, -7, 4, 16, 23, 30, 28, 30, 47, 54, 49, 56, 68, 58, 47, 37, 35, 49, 56, 37, 28, 32, 35, 32, 35, 39, 44, 42, 39, 23, 7, 14, 23, 21, 18, 16, 9, 4, 0]"
1714325597185787769,"[-2, 2, 14, 16, 4, -11, -25, -21, -16, -9, 14, 30, 25, 18, 11, 7, 9, 11, 18, 35, 39, 42, 49, 39, 32, 176, 613, 1128, 1157, 425, -246, -87, 155, -16, -70, 30, 18, -7, 30, 39, 14, 21, 49, 58, 65, 77, 77, 84, 105, 124, 141, 152, 162, 185, 211, 221, 209, 190, 183, 185, 183, 162, 124, 79, 35, 14, 7, -2, -2, -4, -14, -21, -16]"
1714325597746917152,"[-2, 9, 9, 7, 16, 28, 25, 18, 9, -9, -9, 14, 23, 23, 21, 16, 21, 32, 42, 42, 32, 16, 14, 16, 9, 4, 2, -2, 7, 14, 2, -9, -16, -18, -9, 11, 25, 23, 18, 21, 28, 37, 47, 51, 44, 39, 51, 61, 63, 44, 25, 35, 51, 49, 61, 84, 96, 96, 87, 75, 70, 77, 68, 49, 49, 65, 70, 63, 56, 82, 286, 759, 1182]"
1714325598308026187,"[999, 190, -270, 18, 152, -39, -21, 61, 14, 9, 58, 54, 25, 42, 61, 61, 75, 87, 91, 101, 115, 119, 122, 138, 159, 178, 199, 216, 221, 218, 221, 223, 211, 181, 138, 94, 58, 32, 14, 4, 0, -18, -49, -68, -58, -47, -42, -35, -28, -25, -11, 9, 21, 18, 11, 11, 9, -4, -4, -2, -4, -4, -2, 0, 2, 0, 4, 11, 16, 14, 9, 14, 23]"
1714325598869145392,"[25, 30, 39, 37, 35, 44, 42, 37, 35, 23, 30, 61, 68, 39, 16, 18, 39, 51, 21, 11, 61, 58, 14, 28, 47, 47, 225, 693, 1126, 968, 176, -298, -16, 143, -51, -65, 4, -32, -32, 7, 14, 25, 44, 47, 42, 39, 58, 82, 91, 91, 101, 134, 162, 176, 192, 206, 221, 244, 249, 232, 221, 195, 148, 105, 70, 37, 9, -16, -32, -25, -11, -9, -16]"
1714325599430264601,"[-16, -7, 4, 2, 2, -9, -25, -18, -4, 11, 30, 32, 18, 18, 30, 23, 16, 23, 14, 11, 25, 28, 30, 37, 28, 30, 37, 32, 9, -9, -16, -23, -23, -14, -14, -23, -35, -30, -11, -7, -7, -7, -14, 4, 21, 16, 23, 35, 49, 68, 70, 54, 39, 42, 44, 44, 58, 61, 61, 63, 51, 42, 87, 362, 898, 1262, 912, 35, -284, 49, 77, -101, -14]"
1714325599991373632,"[51, -28, -39, 9, 9, 0, 28, 56, 58, 47, 32, 44, 75, 89, 101, 110, 119, 145, 176, 199, 209, 192, 181, 183, 181, 171, 134, 79, 32, 7, -7, -21, -25, -25, -30, -21, -7, 4, 11, 14, 23, 25, 28, 42, 47, 47, 56, 54, 49, 44, 39, 42, 44, 47, 44, 51, 58, 44, 39, 35, 25, 30, 28, 23, 23, 21, 18, 4, 0, 7, 7, 11, 21]"
1714325600552503011,"[16, 14, 23, 37, 37, 25, 35, 56, 75, 94, 89, 63, 28, -7, -14, -7, -2, -2, -4, 7, 16, 11, 32, 244, 705, 1088, 893, 131, -293, -11, 119, -63, -44, 44, 11, 7, 42, 49, 51, 65, 70, 70, 82, 101, 115, 122, 129, 141, 157, 174, 176, 190, 216, 223, 223, 230, 230, 218, 192, 152, 108, 77, 47, 0, -30, -28, -25, -18, -7, -7, -9, -2, 9]"
1714325601113606963,"[14, 21, 30, 18, -11, -25, -28, -44, -51, -49, -39, -25, -16, -9, -9, -23, -21, 2, 14, 14, 2, -21, -32, -25, -16, -11, -14, -18, -14, 2, 7, 9, 9, 4, 18, 47, 63, 70, 56, 25, 7, 9, 25, 25, 18, 28, 30, 30, 39, 37, 150, 562, 1081, 1143, 449, -251, -143, 127, -7, -68, 47, 49, -2, 25, 56, 56, 72, 87, 82, 79, 91, 82, 56]"
1714325601674731255,"[61, 77, 82, 101, 134, 162, 178, 185, 192, 206, 216, 206, 176, 124, 70, 37, 16, -9, -28, -39, -47, -35, -23, -18, -11, -11, -7, 7, 18, 30, 28, 25, 23, 18, 32, 42, 35, 35, 37, 44, 54, 51, 39, 32, 35, 39, 42, 49, 47, 47, 51, 51, 58, 61, 56, 61, 54, 47, 42, 35, 30, 28, 28, 23, 0, -35, -44, -25, -16, -18, -9, -2, 9]"
1714325602235860634,"[35, 49, 49, 42, 23, 21, 30, 30, 35, 35, 21, 21, 32, 25, 21, 192, 656, 1152, 1107, 322, -279, -61, 127, -70, -96, 4, -18, -35, 2, 14, 16, 35, 47, 51, 61, 72, 82, 94, 110, 122, 131, 150, 171, 190, 206, 216, 225, 235, 232, 223, 211, 183, 141, 105, 72, 30, -2, -25, -49, -47, -25, -25, -25, -16, -4, 4, 16, 23, 25, 30, 44, 54, 51]"
1714325602796959495,"[42, 42, 51, 61, 65, 65, 56, 37, 28, 42, 49, 42, 39, 35, 16, 4, 16, 21, 9, 4, 14, 23, 28, 30, 30, 28, 30, 42, 54, 39, 16, 0, -2, 9, 18, 16, 39, 91, 82, 35, 28, 28, 16, 32, 51, 49, 39, 28, 18, 9, 14, 190, 651, 1084, 921, 131, -329, -44, 101, -82, -70, 18, -18, -23, 28, 25, 7, 37, 68, 72, 75, 79, 89]"
1714325603358088874,"[103, 117, 134, 152, 169, 171, 176, 206, 232, 230, 206, 183, 185, 178, 148, 112, 63, 16, 0, -7, -11, -9, -9, -18, -16, 4, 16, 14, 18, 23, 28, 47, 63, 63, 51, 51, 58, 56, 58, 61, 56, 56, 39, 7, -9, -2, 2, -2, 4, 21, 25, 23, 18, 23, 37, 44, 44, 30, 11, 7, 4, 11, 37, 49, 39, 16, 0, 11, 18, 7, -4, 2, 14]"
1714325603919218253,"[16, 21, 18, 7, 112, 505, 1016, 1086, 381, -322, -195, 84, -56, -119, -14, -23, -56, -9, 9, -4, 18, 44, 42, 47, 65, 75, 82, 98, 103, 105, 131, 148, 155, 176, 204, 204, 174, 164, 178, 159, 112, 72, 35, 4, -16, -30, -39, -44, -39, -35, -21, -2, -11, -4, 9, 4, 21, 42, 42, 44, 49, 47, 49, 58, 63, 56, 54, 54, 61, 70, 63, 65, 72]"
1714325604480322205,"[68, 70, 68, 65, 61, 39, 30, 32, 30, 30, 30, 30, 37, 44, 49, 51, 44, 39, 37, 39, 35, 23, 18, 9, 2, 21, 44, 47, 21, -14, -35, -35, -4, 16, -2, 0, 21, 25, 21, 0, -2, 176, 653, 1171, 1119, 317, -291, -68, 131, -63, -84, 11, -25, -42, 4, 14, 11, 21, 30, 39, 54, 70, 75, 79, 91, 103, 124, 145, 159, 169, 183, 209, 223]"
1714325605041446497,"[221, 223, 211, 192, 174, 138, 101, 63, 25, 14, 2, -16, -16, -18, -35, -32, -9, 0, 4, 9, -7, -16, -2, 7, 7, 7, 7, 14, 28, 37, 42, 39, 35, 39, 51, 63, 61, 54, 51, 51, 47, 44, 44, 30, 25, 37, 42, 44, 49, 44, 39, 49, 61, 63, 56, 42, 30, 21, 21, 30, 32, 21, 14, 25, 44, 54, 63, 75, 70, 61, 54, 47, 47]"
1714325605602575876,"[47, 37, 30, 32, 39, 39, 25, 18, 138, 545, 1063, 1152, 479, -232, -145, 91, -75, -145, -42, -49, -72, -28, -14, -30, -14, 11, 21, 28, 42, 54, 65, 77, 94, 110, 112, 119, 150, 169, 181, 199, 206, 204, 202, 192, 164, 127, 84, 49, 25, 11, -4, -7, -9, -7, -2, 0, 9, 30, 32, 32, 39, 44, 54, 61, 63, 58, 44, 25, 25, 32, 28, 30, 44]"
1714325606163705255,"[47, 42, 44, 44, 47, 51, 30, 0, -14, -25, -30, -28, -35, -32, -23, -23, -18, -7, -4, 0, 4, 9, 23, 25, 9, 0, 7, 28, 58, 70, 63, 47, 32, 32, 44, 56, 61, 63, 65, 70, 79, 79, 94, 308, 776, 1140, 896, 112, -251, 47, 138, -30, 9, 84, 37, 32, 70, 47, 32, 70, 87, 82, 89, 108, 119, 119, 129, 152, 171, 192, 223, 225, 197]"
1714325606724829551,"[192, 218, 230, 223, 209, 166, 108, 63, 28, 2, -18, -39, -51, -44, -42, -39, -37, -47, -39, -14, -9, -7, 4, 4, 11, 32, 42, 49, 44, 35, 42, 51, 44, 37, 32, 32, 37, 37, 37, 47, 49, 39, 39, 51, 61, 65, 56, 28, 7, -2, -7, -2, -4, -11, 2, 30, 47, 47, 32, 11, 9, 23, 25, 30, 35, 9, -9, 11, 23, 4, 56, 383, 919]"
1714325607285933495,"[1182, 689, -138, -251, 84, 25, -112, -28, -23, -87, -58, -16, -18, -7, 18, 11, 18, 44, 54, 68, 79, 82, 103, 136, 159, 176, 195, 211, 211, 214, 218, 225, 218, 171, 117, 89, 56, 25, -2, -39, -37, -4, 0, -25, -21, 7, 11, 14, 21, 23, 35, 35, 42, 70, 70, 65, 68, 58, 37, 21, 35, 44, 32, 37, 47, 47, 51, 39, 18, 21, 39, 32, 9]"
1714325607847062878,"[9, 25, 25, 18, 37, 49, 32, 30, 42, 39, 25, 7, -16, -30, -18, -14, -18, -14, -7, 2, 7, 9, 9, 9, 16, 30, 58, 63, 35, 37, 37, 21, 28, 37, 49, 56, 51, 63, 58, 51, 206, 656, 1168, 1157, 388, -246, -68, 143, -35, -77, -2, -49, -51, 9, 2, -2, 21, 21, 25, 51, 63, 61, 54, 51, 89, 112, 112, 138, 155, 162, 190, 214, 214]"
1714325608408192257,"[214, 223, 221, 176, 112, 77, 61, 30, 0, -7, -4, -4, 4, 4, -4, -14, -14, 4, 14, 14, 11, -4, -2, 16, 23, 18, 16, 18, 28, 37, 39, 39, 39, 42, 39, 42, 39, 25, 14, 7, 9, 14, 2, -23, -47, -35, -9, -9, -4, 7, 2, 4, 14, 11, 7, 4, 4, 7, 23, 32, 37, 47, 42, 44, 65, 70, 70, 72, 63, 63, 70, 77, 96]"
1714325608969321636,"[108, 115, 119, 105, 87, 89, 94, 84, 89, 105, 103, 103, 98, 65, 79, 308, 790, 1199, 985, 162, -272, 16, 131, -54, -28, 54, 14, 16, 61, 51, 42, 61, 72, 79, 96, 103, 79, 75, 110, 129, 134, 148, 166, 188, 195, 197, 206, 206, 204, 202, 188, 155, 108, 70, 42, 16, 2, -14, -23, -32, -39, -28, -18, -16, -11, -7, 2, 2, 11, 37, 37, 30, 32]"
1714325609530440845,"[23, 18, 14, -4, -21, -16, 2, 2, -2, -9, -25, -14, -2, -9, -2, 2, 4, 11, 11, 16, 21, 21, 25, 28, 28, 35, 42, 39, 21, -4, -4, 18, 49, 65, 75, 61, 16, 9, 25, 23, 30, 35, 35, 44, 56, 54, 42, 98, 392, 881, 1166, 750, -56, -232, 103, 91, -68, 2, 58, 14, 23, 58, 47, 51, 72, 72, 77, 79, 79, 91, 105, 124, 136]"
1714325610091549876,"[152, 171, 190, 216, 232, 237, 230, 206, 202, 197, 159, 117, 68, 30, 11, -9, -21, -25, -32, -28, -28, -44, -56, -49, -39, -51, -58, -54, -51, -42, -35, -23, -7, 0, 4, 9, 11, 21, 25, 21, 11, -2, -7, -4, 2, 7, 2, -4, -4, 2, 16, 28, 25, 18, 21, 25, 28, 37, 30, 7, 7, 28, 37, 37, 39, 35, 35, 51, 63, 65, 61, 54, 51]"
1714325610652679255,"[61, 79, 101, 103, 77, 49, 47, 51, 61, 70, 61, 56, 65, 65, 47, 14, 11, 204, 710, 1218, 1086, 211, -333, -54, 94, -101, -79, 9, -44, -49, 9, 21, 16, 25, 32, 44, 61, 70, 77, 82, 84, 98, 124, 152, 171, 176, 190, 214, 228, 223, 204, 185, 174, 150, 110, 72, 42, 11, -9, -21, -30, -32, -28, -30, -28, -9, 2, 2, 9, 14, 14, 21, 32]"
1714325611213808638,"[42, 28, 9, 11, 9, 2, 0, -18, -49, -56, -39, -30, -42, -56, -56, -44, -32, -25, -18, -16, -16, -9, 0, 11, 18, 18, 25, 30, 35, 42, 42, 42, 47, 51, 61, 65, 68, 72, 75, 77, 70, 56, 51, 63, 68, 70, 77, 79, 75, 77, 84, 94, 112, 134, 129, 108, 96, 91, 91, 96, 96, 98, 103, 105, 103, 91, 94, 272, 729, 1182, 1103, 331, -256]"
1714325611774938017,"[-58, 119, -56, -65, 23, -11, -21, 25, 25, 18, 23, 23, 32, 47, 44, 37, 51, 68, 84, 96, 112, 131, 150, 169, 188, 199, 204, 204, 197, 174, 136, 84, 18, -32, -51, -58, -65, -68, -70, -70, -63, -49, -30, -23, -23, -23, -11, 7, 16, 21, 18, 21, 30, 42, 51, 56, 54, 49, 54, 63, 68, 65, 61, 61, 49, 23, 30, 54, 47, 39, 51, 63, 65]"
1714325612336052139,"[68, 63, 63, 75, 82, 84, 84, 65, 49, 58, 70, 75, 77, 68, 75, 110, 134, 127, 108, 89, 79, 89, 94, 77, 70, 77, 77, 91, 105, 96, 169, 510, 978, 1095, 543, -152, -145, 155, 70, -25, 70, 84, 32, 44, 72, 77, 87, 101, 101, 96, 112, 129, 136, 150, 152, 150, 164, 155, 143, 176, 197, 178, 181, 192, 181, 152, 124, 96, 61, 21, 0, -14, -51]"
1714325612897166257,"[-91, -103, -91, -87, -94, -89, -75, -72, -61, -37, -39, -44, -30, -23, -25, -30, -39, -54, -49, -30, -25, -30, -25, -16, -11, 2, 14, 11, 14, 16, 16, 23, 32, 39, 42, 47, 42, 44, 61, 56, 49, 58, 65, 84, 108, 101, 70, 42, 47, 42, 14, 14, 23, 28, 37, 39, 32, 35, 164, 587, 1095, 1114, 388, -270, -103, 138, -25, -63, 39, 16, -9, 23, 35]"
1714325613458321071,"[39, 63, 65, 61, 63, 56, 65, 75, 54, 63, 98, 110, 134, 159, 171, 185, 202, 199, 192, 185, 174, 143, 91, 51, 37, 16, -16, -21, -18, -28, -25, -16, -25, -30, -16, -16, -25, -21, 4, 18, 16, 9, -4, -18, -16, -11, -14, -4, 4, -7, -18, -14, -16, -18, -14, -14, -4, 7, 7, 4, 4, 9, 18, 28, 30, 25, 32, 35, 35, 30, 11, 14, 25]"
1714325614019425015,"[25, 35, 47, 42, 35, 28, 39, 63, 61, 42, 25, 28, 39, 49, 56, 61, 56, 56, 58, 51, 84, 343, 860, 1237, 914, 61, -244, 82, 91, -98, -18, 47, -4, 7, 30, -7, -21, 18, 32, 21, 37, 58, 77, 101, 105, 108, 112, 136, 176, 199, 216, 225, 221, 230, 237, 223, 202, 162, 112, 70, 30, 2, -4, -11, -39, -58, -42, -30, -16, -9, -18, -4, 14]"
1714325614580559485,"[14, 25, 30, 25, 35, 44, 35, 14, -7, -28, -37, -21, -16, -21, -16, -16, -7, 7, 9, 0, -23, -25, -4, 0, 11, 16, 4, -2, -11, -7, 2, 0, 2, 4, 14, 42, 44, 35, 39, 49, 61, 77, 70, 49, 70, 108, 112, 96, 82, 70, 65, 58, 49, 65, 79, 79, 79, 75, 79, 218, 616, 1058, 1065, 406, -218, -75, 178, 14, -39, 75, 56, 28, 65]"
1714325615141683777,"[72, 58, 70, 96, 94, 101, 136, 127, 105, 138, 159, 134, 127, 162, 185, 197, 221, 232, 237, 237, 206, 155, 108, 79, 58, 14, -23, -25, -28, -23, -18, -25, -28, -25, -30, -30, -18, -4, -7, 2, 11, 11, 14, 2, 7, 25, 21, 25, 32, 16, 2, -4, -16, -14, 2, 9, -7, -4, 9, 9, 16, 18, 16, 30, 25, 21, 28, 28, 39, 54, 70, 89, 79]"
1714325615702843676,"[58, 30, 11, 18, 30, 44, 44, 25, 21, 16, 9, 32, 256, 745, 1121, 832, 2, -341, -2, 68, -119, -58, 21, -28, -21, 16, 16, 18, 37, 51, 54, 65, 72, 70, 75, 87, 112, 127, 134, 166, 197, 211, 221, 214, 216, 230, 216, 178, 131, 79, 39, 16, 9, -4, -14, -18, -25, -11, 4, 7, 16, 18, 18, 30, 42, 39, 21, 16, 32, 44, 54, 61, 58]"
1714325616263942535,"[51, 49, 61, 70, 68, 54, 18, 14, 42, 47, 37, 18, -11, -4, 11, 16, 23, 21, 18, 25, 37, 44, 49, 49, 30, 7, 7, 4, 0, -9, -14, 0, 9, 9, 11, 9, 11, 23, 30, 35, 42, 54, 65, 75, 77, 58, 47, 49, 47, 56, 68, 72, 77, 68, 58, 63, 131, 449, 994, 1279, 745, -124, -214, 117, 18, -119, -11, 28, -11, 11, 35, -4, -21]"
1714325616825071914,"[11, 28, 37, 49, 54, 63, 75, 98, 105, 89, 103, 141, 166, 181, 195, 202, 183, 176, 190, 171, 127, 79, 37, 14, -2, -7, -14, -18, -7, -2, 2, 18, 18, 18, 28, 30, 49, 63, 56, 61, 65, 63, 70, 79, 72, 68, 82, 70, 37, 35, 44, 42, 37, 35, 44, 51, 47, 51, 56, 54, 54, 56, 49, 30, -7, -32, -25, -18, -21, -2, 11, 2, 2]"
1714325617386201293,"[7, 11, 23, 23, 16, 23, 30, 23, 28, 35, 35, 30, 16, 9, 28, 47, 39, 39, 54, 72, 91, 91, 70, 54, 49, 61, 75, 75, 70, 75, 84, 84, 70, 108, 378, 884, 1220, 881, 58, -237, 68, 94, -77, -14, 49, 2, 11, 44, 42, 47, 65, 75, 72, 72, 94, 112, 96, 77, 91, 112, 129, 157, 185, 204, 206, 206, 221, 228, 216, 192, 148, 91, 54]"
