time,ecg
1713890375761548000,"[17326, 17878, 18376, 18812, 19200, 19497, 19497, 19497, 19497, 19497, 19497, 19497, 19497, 19497, 19497, 19497, 19497, 19497, 19497, 19497, 19497, 19497, 19497, 19497, 19497, 19497, 19497, 19497, 19497, 19497, 19497, 19497, 19497, 19497, 19497, 19497, 19497, 19497, 19497, 19497, 19497, 19497, 19497, 19497, 19497, 19497, 19497, 19497, 19497, 19497, 19497, 19497, 19497, 19388, 19276, 19138, 19016, 18890, 18704, 18497, 18347, 18233, 18097, 17914, 17729, 17586, 17448, 17300, 17164, 16986, 16793, 16648, 16507]"
1713890376322646861,"[16357, 16215, 16034, 15848, 15705, 15562, 15415, 15272, 15089, 14905, 14763, 14627, 14503, 14353, 14122, 13963, 13891, 13739, 13520, 13351, 13199, 13032, 12892, 12765, 12627, 12482, 12327, 12170, 12001, 11849, 11925, 12337, 12706, 12423, 11449, 10799, 10880, 10828, 10514, 10409, 10364, 10207, 10083, 9988, 9857, 9730, 9630, 9528, 9428, 9323, 9176, 9045, 8962, 8871, 8759, 8657, 8566, 8474, 8395, 8324, 8236, 8145, 8057, 7964, 7867, 7760, 7621, 7467, 7314, 7169, 7048, 6936, 6819]"
1713890376883730465,"[6724, 6636, 6541, 6453, 6360, 6265, 6193, 6117, 6022, 5936, 5841, 5715, 5624, 5553, 5467, 5403, 5336, 5258, 5193, 5129, 5055, 4994, 4934, 4863, 4772, 4677, 4617, 4575, 4515, 4456, 4406, 4346, 4287, 4237, 4177, 4120, 4075, 4025, 3968, 3925, 3870, 3801, 3751, 3710, 3661, 3613, 3561, 3511, 3470, 3425, 3387, 3361, 3332, 3292, 3237, 3168, 3115, 3082, 3039, 2999, 2965, 2923, 2877, 2839, 2782, 2711, 2787, 3206, 3751, 3739, 2956, 2325, 2413]"
1713890377444814065,"[2494, 2299, 2268, 2316, 2261, 2223, 2225, 2178, 2120, 2109, 2106, 2080, 2056, 2039, 2020, 2009, 1992, 1951, 1918, 1920, 1925, 1930, 1947, 1954, 1947, 1935, 1920, 1899, 1861, 1797, 1711, 1613, 1521, 1461, 1430, 1399, 1363, 1342, 1328, 1309, 1287, 1266, 1237, 1223, 1221, 1213, 1206, 1199, 1183, 1166, 1164, 1161, 1152, 1142, 1121, 1104, 1102, 1097, 1085, 1073, 1052, 1035, 1033, 1016, 992, 980, 971, 959, 959, 956, 947, 935, 921]"
1713890378005938361,"[909, 911, 909, 902, 885, 864, 854, 852, 835, 802, 768, 766, 783, 783, 761, 740, 726, 714, 714, 716, 716, 714, 697, 671, 640, 609, 754, 1285, 1880, 1782, 921, 380, 583, 666, 483, 499, 571, 535, 530, 561, 549, 540, 557, 566, 566, 571, 568, 568, 578, 590, 599, 606, 614, 623, 633, 642, 664, 680, 666, 654, 654, 642, 595, 533, 468, 407, 366, 340, 314, 302, 299, 297, 299]"
1713890378567042309,"[309, 299, 273, 268, 283, 292, 297, 290, 266, 261, 276, 285, 288, 283, 276, 278, 285, 290, 295, 295, 292, 297, 302, 307, 311, 311, 311, 316, 314, 314, 318, 321, 318, 318, 318, 321, 323, 321, 318, 321, 318, 321, 323, 318, 316, 309, 290, 290, 299, 295, 295, 299, 297, 295, 297, 290, 290, 290, 297, 321, 335, 326, 311, 295, 280, 278, 278, 259, 233, 223, 233, 233, 204]"
1713890379128141170,"[164, 285, 778, 1413, 1454, 609, -90, 61, 226, 47, 40, 133, 104, 99, 142, 142, 138, 157, 173, 180, 192, 197, 202, 211, 228, 242, 257, 268, 283, 304, 330, 359, 376, 383, 385, 383, 366, 330, 283, 228, 180, 140, 109, 90, 88, 80, 76, 85, 88, 80, 80, 71, 59, 69, 83, 88, 92, 90, 88, 95, 83, 57, 57, 66, 64, 73, 90, 92, 80, 64, 66, 85, 95]"
1713890379689240031,"[99, 107, 102, 104, 119, 126, 130, 123, 97, 83, 104, 119, 119, 119, 116, 119, 133, 142, 147, 145, 138, 142, 157, 164, 166, 164, 154, 147, 140, 145, 157, 149, 140, 149, 159, 159, 157, 157, 166, 195, 214, 207, 185, 164, 149, 157, 166, 169, 169, 161, 157, 154, 121, 92, 309, 897, 1382, 1061, 178, -149, 90, 71, -71, 7, 57, 19, 35, 61, 52, 66, 90, 102, 104]"
1713890380250338892,"[107, 114, 128, 145, 157, 164, 173, 188, 209, 238, 259, 259, 254, 266, 280, 283, 271, 233, 169, 102, 61, 45, 23, 4, 4, 11, 16, 26, 35, 40, 40, 47, 61, 71, 71, 71, 78, 83, 85, 95, 97, 92, 92, 95, 95, 85, 54, 42, 59, 69, 54, 42, 42, 52, 59, 57, 66, 76, 71, 73, 83, 83, 88, 92, 88, 90, 97, 99, 102, 107, 99, 102, 111]"
1713890380811437753,"[111, 109, 109, 109, 116, 121, 116, 109, 88, 57, 42, 49, 64, 92, 114, 107, 92, 78, 73, 78, 78, 78, 88, 90, 88, 90, 64, 28, 171, 661, 1221, 1183, 407, -152, 14, 123, -42, -33, 33, -28, -49, -7, -16, -30, 0, 19, 30, 45, 52, 57, 73, 90, 109, 128, 145, 161, 188, 221, 252, 273, 283, 283, 280, 276, 242, 183, 119, 64, 30, 11, 0, -4, -4]"
1713890381372536614,"[-9, -16, -16, -11, -21, -23, -14, 0, 11, 14, 2, -23, -47, -47, -30, -23, -23, -28, -28, -16, -7, 0, 2, -4, -4, 7, 16, 23, 26, 23, 26, 16, -14, -28, -21, -19, -14, 4, 16, 23, 26, 23, 28, 45, 52, 57, 57, 49, 49, 66, 92, 121, 126, 107, 90, 88, 90, 92, 88, 80, 88, 102, 107, 102, 61, 23, 245, 840, 1349, 1071, 185, -188, 69]"
1713890381933635475,"[90, -61, 0, 42, -7, 11, 54, 49, 42, 28, 23, 47, 66, 71, 78, 83, 90, 114, 138, 159, 176, 195, 218, 245, 247, 230, 233, 235, 211, 176, 133, 83, 38, 7, -9, -14, -9, -4, -7, -16, -19, -4, 7, 11, 14, 14, 7, 7, 11, 2, -2, 4, 7, 9, 19, 19, 7, 0, 7, 16, 21, 23, 26, 30, 33, 42, 49, 49, 49, 54, 57, 61, 69]"
1713890382494734340,"[69, 69, 73, 73, 78, 78, 59, 47, 59, 66, 66, 73, 73, 76, 73, 59, 40, 21, 9, 23, 38, 33, 35, 42, 52, 83, 107, 107, 95, 78, 66, 73, 80, 78, 83, 88, 88, 92, 78, 28, 92, 514, 1175, 1404, 718, -92, -92, 119, -28, -78, 23, 9, -19, 19, 33, 33, 49, 59, 59, 66, 80, 95, 104, 109, 116, 130, 149, 173, 192, 211, 228, 242, 249]"
1713890383055833201,"[249, 252, 240, 209, 164, 107, 35, -23, -61, -109, -140, -123, -107, -107, -111, -123, -123, -97, -78, -76, -73, -66, -52, -38, -26, -21, -21, -19, -9, 2, 9, 14, 11, 14, 23, 35, 40, 40, 23, 19, 35, 47, 47, 49, 47, 47, 57, 69, 73, 71, 64, 64, 76, 85, 88, 88, 83, 83, 92, 97, 97, 97, 95, 97, 107, 111, 111, 104, 90, 83, 80, 95, 128]"
1713890383616932062,"[135, 97, 47, 40, 57, 66, 61, 54, 64, 78, 83, 64, 4, 16, 352, 954, 1240, 716, -57, -145, 88, 2, -80, 4, 7, -33, 4, 35, 33, 28, 19, 23, 54, 80, 95, 102, 107, 116, 135, 157, 178, 195, 209, 226, 247, 266, 271, 259, 235, 209, 171, 130, 85, 35, -7, -30, -40, -52, -54, -52, -57, -64, -66, -52, -42, -47, -57, -76, -85, -64, -49, -49, -42]"
1713890384178030923,"[-33, -28, -19, -16, -14, 0, 7, 11, 21, 14, -9, -9, 9, 19, 23, 28, 33, 40, 45, 52, 47, 38, 40, 47, 52, 57, 61, 61, 66, 78, 80, 80, 90, 88, 85, 97, 97, 85, 85, 109, 145, 161, 149, 135, 126, 116, 121, 123, 119, 119, 121, 121, 114, 64, 11, 154, 676, 1278, 1211, 373, -176, 0, 85, -69, -40, 33, 0, 0, 40, 45, 47, 64, 73]"
1713890384739129784,"[80, 88, 95, 111, 128, 138, 133, 121, 135, 171, 192, 195, 202, 218, 238, 247, 240, 221, 192, 147, 104, 83, 64, 35, 21, 26, 21, 11, 14, 21, 26, 35, 42, 47, 59, 61, 49, 45, 57, 66, 80, 85, 73, 52, 42, 54, 54, 38, 38, 47, 42, 38, 16, -21, -26, -7, -2, 0, 2, -2, -2, 4, 9, 19, 23, 14, 19, 35, 40, 40, 47, 42, 35]"
1713890385300228645,"[64, 97, 92, 61, 19, -2, 16, 42, 45, 26, 14, 26, 49, 47, 11, -14, 176, 714, 1175, 899, 126, -145, 64, 45, -64, -2, 33, 2, 35, 119, 138, 38, -16, 35, 47, 33, 71, 97, 92, 104, 126, 133, 154, 183, 183, 161, 180, 230, 242, 233, 230, 199, 145, 123, 107, 61, 30, 16, 4, 4, 16, 23, 21, 19, 16, 11, 11, 30, 45, 26, 21, 40, 45]"
1713890385861327510,"[42, 33, 19, 21, 28, 28, 26, 0, -28, -19, -21, -40, -28, -16, -28, -33, -23, -16, -2, 0, -16, -19, -11, 0, 28, 47, 40, 35, 33, 23, 14, 14, 23, 30, 33, 42, 42, 7, -49, -45, 235, 856, 1263, 787, -35, -166, 69, -7, -95, -14, -4, -26, 21, 33, 11, 38, 64, 52, 54, 80, 92, 104, 119, 128, 154, 188, 202, 226, 264, 288, 309, 335, 340]"
1713890386422426371,"[340, 342, 311, 264, 228, 188, 159, 145, 130, 119, 102, 83, 97, 121, 123, 123, 128, 123, 123, 135, 140, 149, 164, 164, 166, 173, 171, 166, 171, 161, 138, 140, 152, 161, 178, 183, 171, 164, 159, 147, 140, 140, 145, 166, 190, 197, 192, 178, 138, 102, 99, 111, 119, 119, 128, 130, 111, 66, 11, 109, 614, 1268, 1218, 321, -233, -2, 95, -78, -52, 21, -7, 11, 54]"
1713890386983525232,"[42, 35, 52, 59, 66, 85, 95, 80, 71, 92, 119, 138, 154, 145, 138, 178, 218, 228, 230, 230, 226, 223, 188, 102, 28, 0, -28, -42, -28, -19, -30, -35, -26, -9, 2, 11, 21, 16, 9, 4, 4, 9, 11, 11, 16, 33, 61, 64, 30, 9, 28, 54, 47, 33, 57, 116, 123, 78, 78, 109, 99, 111, 130, 80, 35, 42, 54, 57, 35, 35, 78, 83, 23]"
1713890387544613923,"[-26, 114, 661, 1268, 1028, 97, -261, 21, 42, -99, -49, -33, -45, 2, -35, -92, -76, -76, -71, -28, -4, -16, -26, -19, 2, 23, 38, 52, 64, 92, 135, 140, 119, 135, 157, 154, 130, 76, 7, -30, -64, -114, -135, -123, -107, -97, -97, -92, -69, -45, -40, -38, -23, -7, 2, 4, 2, -7, -19, -16, 0, 19, 11, -19, -21, 2, 9, 7, 19, 28, 21, 45, 97]"
1713890388105692436,"[109, 64, 42, 78, 90, 57, 52, 57, 35, 26, 54, 61, 2, 54, 499, 1152, 1237, 447, -197, -52, 90, -78, -114, -45, -28, -16, -11, 4, 40, 11, 16, 135, 119, -61, -11, 209, 197, 71, 42, 49, 109, 221, 252, 209, 195, 221, 252, 242, 192, 159, 130, 54, 28, 85, 71, -16, -7, 49, -30, -104, 40, 104, -42, -4, 92, -19, -45, 26, -33, -40, 47, 26, -64]"
1713890388666791297,"[-88, -38, 7, -14, -33, -54, -119, -126, -28, 26, -14, 0, 97, 61, -126, -140, 42, 47, -64, -16, 52, 19, 4, 9, -26, -14, 311, 961, 1299, 737, -88, -152, 145, 38, -114, -21, 9, -28, 4, 30, 26, 26, 28, 59, 97, 80, 57, 47, 49, 114, 161, 107, 59, 114, 185, 195, 190, 230, 254, 202, 152, 169, 180, 99, -2, 16, 59, -14, -83, -47, -42, -59, -2]"
1713890389227890162,"[45, 9, -4, 30, 11, -49, -47, 4, -4, -40, -16, 0, -11, -7, 2, -9, -7, 21, 28, 26, 47, 64, 73, 80, 59, 23, 11, 35, 23, -21, -4, 30, 7, -7, -28, -57, 57, 466, 935, 816, 92, -288, -88, -45, -190, -121, -33, -83, -92, -59, -69, -69, -45, -28, -14, -9, -4, 2, 9, 9, -14, 0, 57, 64, 73, 109, 116, 166, 211, 119, 52, 102, 88]"
1713890389788958505,"[9, -19, -49, -64, -42, -52, -61, -47, -42, -40, -28, -35, -52, -35, -16, -11, -4, -4, 2, 7, 4, 14, 21, 16, 28, 42, 28, 2, -14, 0, 35, 71, 80, 49, 19, 21, 35, 35, 28, 33, 33, 38, 52, 40, 9, 66, 388, 890, 1021, 457, -123, -64, 99, -42, -83, 19, 4, -40, -7, 14, 0, 7, 9, 4, 11, 23, 35, 49, 54, 54, 59, 71, 78]"
1713890390350026848,"[85, 102, 128, 149, 154, 138, 119, 99, 47, -33, -66, -66, -90, -111, -109, -111, -111, -85, -78, -92, -78, -57, -52, -49, -33, -23, -26, -23, 4, 38, 30, 4, 23, 45, 28, 19, 35, 45, 54, 73, 69, 61, 59, 52, 49, 40, 19, 23, 42, 28, -14, -14, 223, 761, 1128, 733, -14, -138, 104, 38, -71, -14, 14, 9, 33, 45, 38, 35, 52, 73, 88, 95, 107]"
1713890390911125709,"[109, 114, 133, 161, 178, 173, 164, 180, 207, 214, 209, 197, 171, 140, 109, 69, 28, 0, -23, -35, -33, -35, -42, -45, -40, -28, -14, -2, 4, 14, 26, 30, 35, 47, 52, 45, 40, 35, 14, -2, 21, 19, -9, 9, 45, 33, 14, 19, 30, 61, 90, 76, 64, 66, 45, 40, 71, 88, 76, 66, 66, 76, 80, 33, -21, 185, 840, 1430, 1106, 164, -166, 76, 38]"
1713890391472219487,"[-111, -45, -9, -57, -38, -9, -7, 9, 11, -19, -21, 11, 30, 30, 40, 47, 52, 69, 97, 130, 152, 159, 161, 164, 178, 192, 173, 133, 97, 61, 19, -28, -64, -76, -71, -66, -59, -42, -42, -54, -47, -45, -52, -45, -42, -54, -49, -40, -28, -11, -14, -23, -16, 0, 0, -11, -9, 9, 26, 26, 19, 23, 30, 28, 19, 4, 2, 19, 49, 71, 73, 59, 42]"
1713890392033292913,"[35, 42, 49, 42, 40, 49, 28, 0, -11, -49, 40, 528, 1156, 1154, 376, -183, -40, 59, -85, -78, -9, -28, -38, -42, -59, -45, -19, -14, -11, -2, 14, 28, 49, 69, 73, 90, 116, 135, 152, 173, 185, 185, 190, 197, 197, 178, 114, 47, 21, 11, -7, -21, -16, -19, -38, -47, -52, -61, -64, -66, -54, -38, -33, -33, -26, -26, -21, -2, 7, -2, -7, -9, -2]"
1713890392594391778,"[11, 16, 11, -2, -16, -2, 4, -2, 4, -2, -28, -9, 57, 66, 9, -45, -47, 0, 4, 0, 45, 40, -9, -2, 16, 2, 9, 14, 9, 33, 14, -64, 71, 595, 1125, 1035, 314, -140, 7, 61, -88, -83, -16, 4, 26, 16, -16, -9, 23, 30, 23, 14, 28, 66, 71, 61, 88, 111, 107, 111, 130, 147, 169, 176, 157, 152, 169, 142, 52, -21, -30, -40, -64]"
1713890393155460121,"[-73, -80, -85, -76, -54, -38, -42, -52, -64, -85, -88, -71, -80, -99, -76, -45, -45, -35, -21, -30, -38, -14, 11, 14, 14, 16, 19, 26, 28, 26, 28, 40, 49, 54, 59, 59, 47, 52, 66, 73, 83, 76, 52, 59, 76, 71, 73, 85, 76, 73, 61, 9, 57, 464, 1130, 1292, 559, -97, 11, 142, -21, -38, 35, 16, 16, 42, 40, 35, 66, 83, 61, 40, 33]"
1713890393716558982,"[30, 16, 2, 16, 42, 61, 69, 76, 83, 78, 78, 97, 99, 88, 88, 47, -9, -19, -19, -52, -64, -52, -59, -66, -40, -4, 21, 33, 14, -11, -14, 16, 40, 23, 11, 14, 26, 61, 76, 49, 40, 59, 49, 35, 59, 59, 42, 76, 107, 85, 78, 85, 88, 111, 116, 76, 66, 90, 102, 111, 145, 154, 109, 85, 114, 114, 88, 57, 26, 35, 90, 111, 19]"
1713890394277647673,"[-33, 316, 1021, 1316, 699, -28, -52, 88, -47, -95, -19, -21, -52, -28, 2, -11, -47, -38, -19, -33, -45, -33, -9, -7, -16, 28, 90, 71, 30, 66, 102, 92, 102, 130, 133, 123, 104, 69, 33, 9, 11, 4, -16, 0, 38, 40, 16, 16, 42, 49, 38, 42, 59, 49, 38, 52, 61, 59, 66, 52, 28, 38, 59, 59, 64, 69, 64, 71, 90, 99, 97, 95, 104]"
1713890394838726186,"[121, 133, 138, 140, 135, 130, 133, 142, 149, 145, 130, 114, 123, 161, 180, 161, 111, 80, 90, 97, 99, 102, 85, 64, 69, 66, 26, 135, 623, 1156, 968, 157, -173, 85, 78, -95, -30, 28, -11, -9, 7, 2, 30, 38, -4, -16, 30, 76, 85, 88, 92, 85, 66, 64, 90, 138, 166, 169, 164, 147, 145, 166, 195, 192, 119, 35, 16, 9, -11, -16, -2, 9, 21]"
1713890395399825047,"[42, 49, 40, 28, 23, 35, 40, 11, -9, -2, 14, 38, 45, 30, 38, 47, 33, 33, 45, 42, 33, 28, 38, 59, 57, 49, 45, 30, 33, 49, 47, 28, 14, 7, -9, -23, -30, -28, -2, 26, 33, 49, 45, 4, -21, -45, -54, -21, -2, -21, 0, 16, -35, -45, 202, 723, 1071, 680, -28, -133, 80, -9, -92, 7, 26, -14, 4, 19, 14, 28, 40, 38, 49]"
1713890395960923912,"[57, 59, 73, 88, 92, 92, 97, 119, 140, 157, 169, 180, 190, 199, 195, 178, 142, 92, 54, 38, 23, 9, -9, -11, -4, -11, -23, -14, -2, 0, 9, 26, 33, 30, 33, 45, 49, 19, -23, -23, -9, -7, 0, 9, 0, -21, -28, -23, -23, -26, -19, -16, -21, -14, 2, 4, 2, -7, -16, -4, 11, 4, -7, -4, 2, 14, 35, 71, 92, 80, 57, 49, 47]"
1713890396522022773,"[49, 47, 40, 42, 52, 52, 52, 11, -21, 218, 771, 1083, 656, -35, -142, 69, -7, -99, -19, -4, -45, -14, 9, 4, 21, 21, 14, 54, 83, 69, 54, 35, 33, 64, 90, 102, 123, 142, 154, 173, 190, 197, 195, 176, 135, 102, 76, 40, 0, -28, -40, -30, -19, -14, -7, -9, -28, -33, -7, 14, 14, 7, 4, 0, -4, -11, -26, -33, -30, -23, -19, -11, -11]"
1713890397083121634,"[-19, -14, -2, -2, -2, 9, 7, -7, -11, 0, -4, -30, -35, -19, -9, -2, 4, 4, 4, 2, 7, 28, 45, 38, 33, 35, 21, 16, 23, 23, 23, 23, 33, 45, 30, -14, 42, 402, 940, 1054, 437, -147, -69, 83, -38, -64, 11, 4, -9, 19, 33, 33, 40, 52, 61, 66, 76, 83, 88, 104, 123, 138, 154, 166, 183, 207, 221, 226, 233, 238, 226, 188, 135]"
1713890397644220495,"[92, 64, 28, 2, -4, -21, -35, -33, -47, -59, -40, -28, -45, -47, -45, -61, -85, -92, -69, -52, -61, -61, -42, -42, -40, -30, -28, -26, -11, -11, -21, -26, -26, -19, -2, 0, -2, 4, 9, 14, 28, 33, 28, 30, 35, 45, 57, 57, 52, 49, 47, 49, 73, 99, 111, 104, 88, 73, 83, 85, 73, 71, 66, 59, 59, 38, -4, 121, 590, 1094, 978, 249, -142]"
1713890398205319356,"[45, 92, -42, -7, 42, -16, -38, 2, 14, -7, -28, -23, 0, 16, 23, 38, 52, 54, 64, 90, 114, 123, 123, 133, 152, 161, 159, 164, 154, 119, 80, 49, 11, -28, -61, -83, -88, -76, -66, -61, -61, -61, -47, -30, -26, -16, -11, -11, 0, 16, 19, 21, 21, 7, -7, 0, 11, 14, 11, 14, 28, 40, 40, 42, 42, 40, 49, 59, 61, 61, 57, 57, 71]"
1713890398766418217,"[78, 73, 47, 19, 26, 45, 49, 52, 40, 11, 9, 28, 38, 42, 57, 59, 45, 35, 42, 49, 49, 49, 52, 64, 73, 59, 11, 54, 407, 987, 1168, 559, -85, -40, 116, -11, -35, 45, 21, 0, 35, 45, 45, 61, 66, 49, 35, 42, 57, 64, 64, 73, 78, 83, 90, 99, 102, 114, 135, 149, 152, 142, 126, 92, 45, 9, -14, -52, -88, -90, -76, -69, -66]"
1713890399327522169,"[-54, -35, -26, -35, -45, -47, -57, -52, -35, -30, -26, -14, -9, -2, 4, 7, 11, 14, 19, 30, 35, 30, 33, 40, 42, 45, 54, 54, 54, 57, 59, 66, 71, 71, 71, 73, 66, 59, 64, 61, 66, 78, 83, 78, 69, 69, 69, 64, 78, 109, 130, 123, 95, 73, 76, 85, 83, 80, 88, 78, 49, 30, 2, 61, 449, 1033, 1144, 466, -154, -69, 71, -71, -92]"
1713890399888615943,"[-28, -47, -30, 2, -14, -7, 7, -4, -19, -38, -42, -14, 19, 38, 42, 42, 69, 99, 119, 123, 104, 88, 121, 164, 164, 138, 83, 14, -23, -40, -49, -61, -71, -61, -38, -19, -7, -2, -16, -21, -7, 7, 14, 16, 9, 11, 21, 30, 40, 38, 23, 14, 0, 0, 16, 23, 16, 23, 35, 33, 28, 33, 35, 45, 59, 64, 69, 71, 64, 66, 78, 80, 83]"
1713890400449730065,"[85, 85, 88, 97, 102, 83, 61, 83, 135, 178, 197, 192, 152, 123, 159, 171, 133, 130, 130, 116, 126, 121, 97, 214, 635, 1133, 1068, 366, -66, 90, 140, 0, 26, 78, 40, 40, 49, 33, 42, 66, 76, 78, 80, 76, 54, 42, 66, 90, 99, 111, 116, 130, 164, 185, 188, 190, 199, 207, 190, 135, 85, 69, 47, 23, 21, 19, 11, 11, 23, 40, 47, 38, 40]"
1713890401010844183,"[61, 76, 76, 71, 66, 71, 76, 80, 88, 83, 69, 66, 76, 83, 76, 47, 33, 54, 59, 52, 57, 59, 61, 64, 64, 69, 73, 73, 80, 85, 83, 88, 95, 88, 92, 97, 83, 57, 35, 40, 69, 78, 61, 54, 38, 19, 30, 38, 35, 45, 52, 42, 33, 2, 4, 271, 835, 1154, 685, -52, -159, 35, -59, -147, -69, -59, -92, -69, -52, -57, -40, -23, -26]"
1713890401571943044,"[-28, -23, -7, 16, 28, 30, 30, 28, 54, 99, 119, 126, 140, 152, 161, 161, 142, 107, 61, 28, 7, -11, -28, -33, -38, -33, -19, -9, -4, -7, -28, -38, -26, -23, -19, -11, -4, 26, 54, 16, -19, 16, 45, 30, 7, -9, 19, 76, 76, 64, 88, 92, 69, 57, 61, 69, 76, 90, 88, 61, 71, 97, 88, 78, 73, 35, 21, 40, 42, 66, 102, 97, 104]"
1713890402133041909,"[116, 78, 52, 59, 30, 9, 33, 45, 45, 61, 2, -61, 152, 730, 1235, 966, 104, -245, -19, -21, -157, -97, -97, -214, -195, -76, -69, -123, -114, -88, -80, -61, -40, -35, -23, 0, 21, 38, 49, 66, 92, 116, 130, 142, 147, 145, 138, 123, 95, 54, 11, -14, -23, -19, -16, -28, -47, -45, -26, 0, 11, 7, 9, 23, 26, 28, 38, 45, 45, 40, 47, 64, 76]"
1713890402694140770,"[73, 69, 66, 64, 64, 78, 80, 59, 47, 57, 64, 61, 61, 64, 52, 14, -9, 9, 21, 9, 19, 35, 38, 42, 49, 42, 40, 57, 85, 104, 99, 78, 76, 78, 69, 59, 71, 88, 76, 61, 52, 0, 49, 430, 956, 994, 338, -199, -95, 30, -99, -116, -47, -66, -80, -40, -30, -45, -26, 7, 11, 9, 21, 33, 47, 59, 64, 78, 99, 123, 140, 159, 188]"
1713890403255219287,"[199, 204, 204, 190, 166, 135, 80, 28, -21, -76, -102, -97, -88, -73, -57, -49, -52, -38, -14, -7, -7, 7, 11, 7, 23, 54, 57, 45, 45, 52, 54, 59, 64, 61, 59, 73, 76, 64, 49, 47, 54, 57, 64, 73, 71, 69, 71, 73, 80, 88, 80, 76, 80, 83, 90, 97, 88, 83, 111, 135, 135, 123, 102, 76, 78, 92, 99, 99, 95, 83, 64, 35, 38]"
1713890403816338492,"[249, 721, 1040, 683, -9, -159, 42, -47, -173, -97, -76, -114, -90, -76, -80, -57, -28, -26, -26, -16, 0, 16, 26, 42, 64, 69, 83, 114, 123, 119, 128, 138, 138, 147, 147, 119, 69, 23, -2, -11, -23, -28, -28, -26, -19, -9, -2, 9, 11, 9, 21, 38, 38, 40, 42, 38, 42, 57, 64, 64, 57, 38, 38, 49, 54, 59, 52, 14, 9, 45, 49, 35, 38]"
1713890404377437353,"[42, 42, 52, 61, 57, 47, 49, 54, 59, 76, 76, 61, 59, 66, 78, 90, 90, 78, 64, 45, 23, 28, 35, 23, 21, 33, 40, 38, 2, 4, 247, 778, 1144, 776, 26, -157, 57, 2, -99, -33, -11, -38, -26, -26, -38, -33, -26, -23, -21, -7, 7, 7, 4, 19, 38, 52, 69, 83, 109, 123, 97, 90, 121, 128, 104, 78, 45, 9, -23, -42, -42, -42, -54]"
1713890404938531131,"[-47, -30, -30, -23, -16, -16, -2, 2, -19, -19, -9, -26, -26, -9, -11, -9, 7, 11, 11, 14, 14, 19, 28, 35, 42, 35, 38, 57, 61, 54, 59, 59, 57, 66, 69, 64, 69, 71, 73, 80, 78, 80, 90, 73, 59, 69, 71, 73, 95, 114, 116, 99, 57, 19, 21, 33, 35, 47, 57, 49, 42, 16, 4, 209, 714, 1111, 821, 85, -154, 57, 28, -99, -42]"
1713890405499635079,"[-2, -38, -52, -52, -61, -80, -90, -66, -42, -42, -40, -30, -14, 4, 23, 45, 59, 78, 102, 126, 145, 154, 149, 140, 138, 123, 88, 45, 0, -26, -23, -21, -26, -23, -33, -42, -21, 0, 2, 2, 2, 9, 21, 30, 33, 19, -7, -2, 21, 28, 30, 33, 26, 28, 45, 49, 47, 49, 47, 47, 61, 73, 69, 61, 59, 59, 49, 45, 49, 42, 38, 52, 61]"
1713890406060733940,"[61, 66, 59, 52, 64, 76, 71, 59, 33, 19, 40, 64, 83, 99, 88, 57, 52, 64, 59, 52, 54, 59, 69, 71, 47, -2, 80, 497, 1014, 985, 283, -195, -40, 49, -104, -99, -35, -78, -119, -107, -90, -80, -69, -54, -45, -35, -23, -7, 7, 14, 26, 47, 66, 92, 116, 130, 133, 128, 130, 142, 135, 109, 78, 40, 9, -9, -26, -38, -38, -40, -33, -14, -9]"
1713890406621802283,"[-7, 2, 9, 11, 21, 30, 33, 33, 33, 40, 42, 23, 14, 26, 28, 21, 11, 7, 16, 28, 26, 28, 33, 33, 40, 47, 45, 52, 54, 47, 42, 23, 7, 23, 38, 28, 35, 49, 45, 45, 54, 54, 52, 64, 69, 61, 61, 64, 52, 40, 47, 76, 95, 97, 90, 71, 49, 47, 47, 42, 49, 49, 42, 42, 7, -26, 161, 659, 1068, 795, 47, -216, 7]"
1713890407182901144,"[-4, -130, -69, -30, -66, -40, -16, -52, -78, -71, -40, -21, -19, -9, 7, 21, 35, 57, 73, 88, 111, 133, 149, 149, 133, 128, 130, 126, 116, 83, 35, 0, -26, -38, -38, -38, -35, -33, -35, -40, -35, -23, -16, -21, -14, 11, 23, 21, 23, 19, 16, 30, 42, 42, 38, 33, 40, 54, 57, 59, 61, 52, 49, 61, 61, 57, 59, 57, 52, 54, 59, 45, 26]"
1713890407744000005,"[28, 42, 52, 52, 47, 54, 64, 59, 47, 47, 49, 21, -4, 11, 28, -2, -45, -54, -35, -2, 16, 7, -23, -47, -49, -52, -59, -47, -33, -40, -64, -80, -85, 45, 452, 902, 823, 159, -242, -52, 28, -123, -109, -38, -61, -54, -23, -30, -35, -7, 16, 21, 21, 33, 49, 64, 80, 97, 109, 126, 145, 166, 176, 178, 195, 211, 207, 192, 173, 130, 73, 26, -2]"
1713890408305098866,"[-21, -21, -19, -28, -28, -14, -9, -7, -9, -30, -28, -7, 0, 0, -4, -14, -7, 4, 9, 23, 28, 19, 4, 4, 19, 30, 30, 26, 30, 38, 45, 49, 47, 47, 49, 54, 61, 71, 64, 59, 69, 64, 59, 80, 102, 107, 90, 59, 47, 52, 54, 49, 35, 14, -7, -16, -28, -61, -54, 195, 742, 1109, 706, -54, -197, 35, -35, -135, -47, -16, -54, -38, -9]"
1713890408866197731,"[-11, -26, -30, -16, -2, -4, -11, -7, 19, 40, 45, 61, 88, 107, 130, 159, 173, 176, 176, 173, 157, 116, 61, 16, -4, -19, -28, -30, -33, -33, -23, -11, -7, 0, 4, 4, 14, 33, 40, 38, 38, 42, 45, 52, 52, 38, 28, 35, 45, 45, 52, 57, 49, 45, 59, 69, 69, 69, 64, 57, 61, 76, 85, 78, 69, 71, 73, 52, 28, 35, 40, 33, 38]"
1713890409427296592,"[49, 47, 42, 40, 45, 66, 71, 47, 23, -4, -26, -16, -14, -26, -26, -28, -57, -107, 2, 561, 1313, 1302, 342, -283, -71, 28, -159, -135, -49, -83, -80, -35, -38, -47, -26, -16, -28, -19, 0, 7, 16, 33, 49, 66, 78, 90, 119, 152, 171, 176, 176, 178, 180, 164, 128, 85, 45, 19, 9, 0, -26, -47, -42, -30, -21, -7, 7, 2, -9, -9, 7, 21, 28]"
1713890409988395453,"[26, 21, 26, 38, 45, 49, 47, 42, 42, 49, 57, 54, 35, 19, 28, 40, 42, 47, 47, 42, 47, 61, 66, 64, 66, 64, 52, 42, 49, 59, 59, 59, 57, 66, 78, 69, 47, 42, 47, 47, 54, 59, 45, 26, 21, 11, 2, 16, 38, 47, 49, 33, -4, -35, -26, -14, -19, -7, 2, -7, -14, -47, -66, 233, 952, 1418, 873, -64, -204, 54, -45, -147, -45]"
1713890410549463796,"[-30, -71, -33, -7, -21, -9, 16, 19, 21, 16, 2, 14, 38, 42, 52, 71, 88, 99, 107, 123, 149, 157, 157, 169, 161, 130, 92, 57, 28, 14, 2, -9, -7, -2, 2, 16, 21, 21, 26, 35, 40, 47, 49, 49, 49, 35, 14, 21, 35, 26, 9, 9, 23, 35, 38, 35, 35, 40, 52, 59, 57, 52, 52, 52, 59, 71, 73, 64, 61, 66, 71, 76, 66]"
1713890411110562657,"[47, 45, 52, 59, 64, 57, 30, -2, -9, -14, -14, -7, -11, -16, -2, 7, 7, 9, 9, 7, 14, 23, 23, 16, 11, 28, 59, 78, 76, 52, 30, 35, 45, 47, 54, 54, 47, 33, -2, -49, 0, 385, 1049, 1256, 526, -202, -104, 71, -97, -121, -14, -30, -47, -9, -9, -14, 16, 38, 40, 40, 42, 54, 71, 88, 99, 107, 116, 140, 164, 185, 204, 207, 197]"
1713890411671661518,"[192, 192, 188, 159, 99, 52, 38, 30, 23, 7, -30, -42, -14, -7, -14, -2, 7, 23, 42, 38, 33, 38, 35, 33, 47, 54, 57, 54, 52, 35, 11, 9, 14, 4, 4, 14, 21, 26, 26, 14, 7, 11, 21, 23, 26, 23, 7, -2, 2, 2, 0, 0, -4, -4, 4, 16, 14, 11, 16, 21, 28, 38, 38, 26, 16, 14, 26, 30, 28, 30, 35, 35, 35]"
1713890412232760379,"[45, 57, 80, 102, 95, 78, 64, 42, 30, 40, 45, 49, 57, 57, 47, 21, 45, 338, 868, 1073, 547, -80, -88, 59, -54, -95, -14, -16, -30, 0, 11, 7, 28, 42, 45, 57, 71, 71, 88, 111, 119, 123, 145, 166, 183, 202, 216, 226, 233, 235, 238, 223, 190, 149, 107, 64, 33, 21, 11, 4, 4, 9, 19, 26, 30, 38, 40, 47, 59, 64, 64, 64, 64]"
1713890412793859244,"[71, 78, 78, 73, 57, 38, 35, 35, 33, 30, 33, 35, 35, 23, -2, -38, -69, -61, -40, -33, -33, -30, -30, -21, -4, -2, -2, -2, 2, 11, 21, 23, 26, 19, 19, 30, 42, 45, 45, 38, 38, 49, 57, 57, 71, 88, 90, 88, 83, 69, 57, 52, 57, 66, 73, 80, 80, 64, 35, 66, 340, 842, 1078, 597, -52, -71, 138, 45, -30, 38, 45, 26, 54]"
1713890413354958105,"[71, 59, 61, 78, 85, 78, 73, 73, 57, 57, 85, 107, 114, 114, 114, 140, 176, 192, 202, 202, 190, 183, 161, 121, 80, 38, 4, -4, -2, 2, 2, -7, -19, -14, 2, 11, 14, 2, -19, -16, -7, -14, -26, -21, -14, -11, -4, 0, 0, -4, -4, 2, 11, 21, 21, 19, 21, 30, 40, 42, 42, 40, 42, 49, 57, 59, 57, 57, 54, 42, 38, 40, 33]"
1713890413916056966,"[4, -7, 7, 21, 21, 23, 28, 26, 28, 35, 35, 38, 59, 71, 52, 23, 0, -2, 14, 19, 23, 35, 35, 26, 0, 26, 307, 835, 1080, 580, -85, -114, 88, -4, -76, 2, 9, -14, 16, 35, 26, 35, 52, 54, 69, 83, 85, 95, 111, 121, 130, 145, 159, 180, 204, 214, 230, 242, 238, 228, 207, 157, 116, 76, 21, -38, -73, -73, -61, -66, -71, -69, -71]"
1713890414477155827,"[-76, -73, -66, -59, -52, -45, -40, -47, -61, -54, -38, -35, -35, -28, -26, -19, -4, -2, -2, -2, -4, 0, 14, 19, 19, 21, 26, 33, 42, 47, 47, 45, 49, 61, 69, 71, 71, 69, 73, 85, 90, 92, 95, 95, 95, 97, 95, 85, 85, 102, 121, 116, 85, 64, 59, 59, 64, 52, 26, 19, 26, 19, -4, 9, 247, 764, 1092, 709, 9, -123, 92, 28, -80]"
1713890415038249605,"[-9, 26, 9, 30, 28, -23, -28, 14, 21, 14, 21, 26, 30, 40, 52, 73, 90, 99, 121, 154, 178, 192, 199, 197, 192, 185, 157, 111, 59, 11, -9, -11, -19, -21, -26, -40, -49, -45, -26, -7, 0, 0, -2, -9, -14, -33, -59, -54, -28, -21, -30, -49, -80, -92, -92, -97, -90, -76, -76, -76, -59, -42, -40, -40, -35, -33, -23, -11, -4, -4, -7, -7, -2]"
1713890415599323031,"[7, 16, 26, 33, 26, 11, 7, 7, -9, -26, -14, 0, 7, 11, 2, -30, -4, 283, 806, 1052, 564, -99, -130, 85, 2, -71, -2, -2, -19, 33, 61, 35, 21, 23, 14, 30, 69, 107, 142, 154, 138, 154, 188, 159, 140, 192, 230, 216, 214, 226, 223, 214, 169, 109, 85, 73, 38, 7, 9, 19, 9, 11, 28, 42, 45, 42, 23, 14, 30, 40, 28, 35, 49]"
1713890416160421896,"[40, 42, 57, 59, 54, 45, 23, 26, 40, 30, 21, 21, 21, 19, 11, 11, 28, 42, 45, 47, 42, 30, 23, 11, -4, -21, -33, -42, -38, 7, 54, 59, 64, 80, 54, 14, -9, -9, 14, 47, 52, 35, 33, 21, -33, 21, 445, 1092, 1240, 507, -183, -90, 64, -92, -107, -11, -49, -95, -64, -30, -21, -7, -2, -2, 4, 19, 30, 40, 54, 69, 83, 102, 130]"
1713890416721520757,"[157, 176, 188, 199, 214, 226, 226, 204, 152, 83, 54, 52, 40, 19, 4, 2, -2, -4, 9, 26, 23, 19, 30, 42, 45, 45, 40, 28, 9, -2, 9, 14, 4, 14, 28, 28, 33, 42, 40, 40, 49, 57, 61, 59, 54, 57, 66, 61, 49, 45, 45, 49, 59, 64, 69, 66, 57, 59, 71, 76, 71, 69, 59, 52, 59, 66, 61, 49, 40, 38, 35, 30, 19]"
1713890417282619618,"[2, -2, 14, 28, 23, 19, 14, 0, 9, 47, 64, 40, -2, -19, -7, 4, 7, 9, 11, 16, 9, -33, -83, -42, 302, 925, 1206, 621, -140, -169, 42, -64, -119, -26, -30, -59, -28, -11, -21, -19, -19, -14, 7, 23, 26, 40, 57, 59, 71, 90, 111, 135, 159, 176, 192, 202, 202, 197, 180, 147, 107, 71, 49, 30, 7, 11, 21, 14, 16, 16, 33, 54, 11]"
1713890417843718479,"[-40, -9, 35, 30, 28, 45, 42, 45, 47, 19, 7, 28, 30, 2, -19, -9, 4, 11, 26, 57, 83, 76, 64, 66, 54, 52, 61, 59, 54, 57, 30, 0, 4, 11, 9, 14, 16, 16, 23, 23, 14, 9, 0, -11, -9, 2, 4, 2, 11, 19, 9, 9, 23, 28, 23, 23, 28, 35, 47, 47, 45, 47, 33, 23, 57, 90, 97, 107, 85, 42, 47, 71, 52]"
1713890418404817340,"[45, 64, 66, 69, 71, 19, -23, 183, 690, 1042, 711, 7, -192, 23, 4, -97, -38, -11, -40, -14, 11, -4, -4, 16, 26, 35, 57, 69, 76, 83, 92, 109, 130, 152, 166, 180, 192, 197, 202, 214, 211, 190, 159, 116, 76, 49, 23, -9, -21, -14, -14, -21, -19, -26, -33, -19, -7, -2, -2, -2, 11, 26, 23, 23, 21, 9, 14, 38, 42, 40, 33, -2, -30]"
1713890418965916205,"[-19, -9, -9, -2, -7, -19, -21, -19, -35, -71, -88, -73, -76, -90, -76, -66, -69, -61, -47, -35, -23, -26, -33, -21, 0, 7, 7, 2, 4, 19, 30, 33, 35, 47, 66, 80, 83, 71, 49, 42, 47, 54, 59, 64, 59, 42, 35, 21, 57, 347, 852, 1054, 564, -64, -78, 119, 14, -57, 21, 30, 9, 38, 45, 4, -14, 14, 35, 30, 35, 54, 69, 80, 97]"
1713890419526984548,"[114, 123, 138, 152, 171, 199, 199, 173, 171, 173, 154, 133, 92, 45, 23, -21, -66, -45, -16, -26, -30, -21, -4, -2, -4, 11, 33, 28, 14, 28, 45, 45, 52, 69, 73, 42, 9, 16, 35, 26, 26, 35, 33, 23, 7, -2, -2, -11, -11, 2, -2, -7, 7, 11, 7, 0, -26, -45, -28, -14, -19, -9, 2, 4, 9, 9, 4, 7, 4, 2, 4, 9, 11]"
1713890420088083409,"[19, 21, 19, 35, 64, 85, 83, 64, 45, 33, 14, 14, 33, 33, 33, 42, 23, -19, 57, 464, 1097, 1275, 580, -133, -80, 83, -73, -116, -26, -33, -42, -2, 0, -9, 11, 28, 30, 42, 49, 47, 59, 83, 102, 114, 128, 142, 159, 190, 216, 195, 166, 180, 190, 166, 138, 99, 49, 9, -9, -23, -26, -26, -42, -54, -45, -28, -16, -9, -19, -26, -21, -26, -40]"
1713890420649182270,"[-40, -38, -30, -19, -9, -11, -21, -40, -52, -33, -16, -16, -14, -14, -9, 0, 7, 2, -7, -7, 0, 7, 19, 26, 19, 11, 23, 42, 47, 45, 38, 38, 49, 64, 76, 95, 92, 92, 97, 73, 66, 109, 111, 57, 42, 69, 80, 88, 99, 104, 99, 92, 80, 69, 69, 73, 76, 73, 80, 90, 85, 80, 73, 73, 280, 771, 1116, 780, 83, -102, 116, 88, -14]"
1713890421210270961,"[45, 49, 11, 40, 61, 57, 78, 95, 69, 47, 52, 57, 78, 109, 119, 88, 69, 114, 154, 154, 180, 199, 178, 180, 195, 171, 123, 73, 30, -7, -42, -61, -61, -61, -69, -85, -102, -99, -85, -80, -78, -76, -76, -61, -49, -49, -35, -16, -21, -19, -2, 7, 2, 2, 9, 16, 26, 28, 21, 26, 35, 38, 40, 38, 40, 49, 45, 45, 52, 52, 49, 52, 59]"
1713890421771349474,"[47, 19, 14, 35, 35, 23, 30, 21, 2, 16, 33, 28, 45, 73, 88, 85, 54, 26, 30, 33, 23, 26, 30, 30, 33, 23, 7, 71, 359, 768, 821, 285, -209, -123, 35, -66, -102, -28, -28, -38, -7, 0, -11, 4, 30, 40, 49, 66, 76, 73, 95, 135, 140, 138, 171, 204, 230, 266, 276, 261, 264, 266, 259, 211, 76, -26, -7, 11, -35, -76, -59, -40, -30]"
1713890422332417817,"[-23, -49, 9, 42, -138, -209, -71, -47, -95, -52, -16, -21, -23, -64, -73, -16, -4, -38, -26, 2, 7, -11, -45, -47, -26, -47, -73, -23, -4, -40, -16, 23, 9, 2, 14, 19, 28, 45, 52, 21, -4, 23, 73, 102, 104, 76, 57, 61, 54, 52, 69, 64, 54, 64, 59, 7, -19, 211, 780, 1235, 925, 104, -171, 59, 28, -104, -26, 21, -21, -16, 14, 16, 23]"
1713890422893516682,"[47, 52, 40, 42, 69, 88, 92, 90, 80, 95, 128, 149, 176, 195, 180, 173, 197, 207, 178, 135, 80, 30, 0, -14, -26, -35, -42, -40, -28, -16, -7, -7, -4, 4, 14, 21, 28, 30, 30, 35, 40, 49, 52, 49, 47, 42, 33, 30, 35, 35, 38, 40, 40, 35, 30, 26, 23, 26, 30, 28, 14, 4, -4, -16, -14, 2, 19, 33, 33, 16, 0, 4, 11]"
1713890423454595199,"[11, 14, 19, 23, 26, 7, -40, -92, 42, 516, 1023, 911, 161, -266, -73, 0, -135, -107, -40, -64, -59, -23, -21, -19, 4, 16, 21, 35, 49, 57, 73, 92, 102, 119, 140, 164, 185, 195, 199, 214, 223, 214, 199, 166, 111, 61, 28, 4, -4, -7, -11, -16, -11, -2, 4, 16, 21, 21, 23, 33, 45, 47, 47, 47, 49, 59, 66, 66, 59, 47, 42, 35, 11]"
1713890424015683886,"[7, 16, 11, 7, 23, 38, 33, 23, 7, 0, 14, 28, 26, 23, 23, 28, 38, 49, 52, 45, 40, 38, 28, 30, 52, 64, 64, 59, 28, -2, -14, -28, -35, -11, 0, -7, -4, -11, -45, -49, 161, 680, 1111, 833, 54, -228, 11, 14, -119, -71, -26, -52, -33, -7, -14, -11, 11, 23, 33, 42, 28, 19, 42, 66, 59, 49, 64, 90, 116, 149, 176, 185, 185]"
1713890424576782747,"[178, 166, 142, 99, 54, 11, -21, -26, -16, -19, -26, -45, -59, -42, -23, -16, -7, -7, -11, -11, -9, -2, 7, 4, 2, 9, 26, 38, 35, 28, 28, 38, 47, 49, 49, 47, 47, 54, 61, 66, 64, 57, 59, 66, 71, 73, 71, 66, 66, 71, 73, 59, 45, 47, 52, 52, 54, 30, -7, -4, 16, 38, 64, 66, 30, 0, -2, 7, 9, 4, 2, -4, -11]"
1713890425137851090,"[-16, -45, -88, 26, 473, 1021, 1030, 304, -278, -157, -35, -188, -185, -97, -126, -135, -88, -78, -80, -52, -33, -30, -19, -4, 7, 21, 35, 49, 71, 90, 116, 142, 161, 183, 202, 209, 209, 197, 166, 119, 69, 19, -21, -49, -64, -61, -57, -52, -42, -35, -49, -66, -64, -52, -40, -30, -23, -14, -4, -2, 4, 11, 14, 19, 28, 30, 30, 33, 42, 47, 42, 45, 49]"
1713890425698919433,"[40, 30, 26, 30, 35, 23, -2, 0, 19, 14, 9, 38, 64, 71, 66, 47, 33, 33, 35, 45, 52, 47, 45, 52, 45, 11, 4, 226, 773, 1240, 961, 138, -180, 45, 19, -123, -54, -19, -61, -40, -16, -26, -21, -30, -54, -45, -42, -57, -33, 0, 14, 23, 40, 66, 99, 133, 161, 180, 180, 178, 178, 154, 104, 47, -2, -47, -73, -73, -69, -73, -76, -66, -49]"
1713890426259987780,"[-40, -30, -33, -52, -52, -26, -7, -2, 2, 4, 9, 19, 30, 42, 45, 35, 40, 54, 57, 59, 64, 57, 59, 71, 64, 49, 45, 47, 54, 61, 69, 76, 73, 61, 66, 64, 33, 19, 38, 59, 80, 95, 83, 59, 47, 49, 59, 66, 69, 71, 66, 64, 57, 14, 59, 442, 1068, 1306, 683, -92, -107, 104, -26, -90, 9, 14, -11, 21, 28, 21, 42, 59, 61]"
1713890426821086641,"[57, 49, 54, 69, 85, 97, 102, 102, 114, 133, 142, 147, 145, 142, 147, 130, 90, 45, -2, -45, -71, -80, -80, -80, -80, -76, -69, -69, -83, -97, -83, -66, -61, -47, -33, -30, -28, -16, -9, -2, 9, 9, 11, 19, 26, 30, 38, 35, 26, 26, 33, 40, 45, 45, 49, 57, 57, 59, 66, 64, 66, 76, 76, 76, 80, 80, 83, 85, 85, 88, 90, 88, 92]"
1713890427382170245,"[95, 92, 95, 95, 90, 92, 83, 57, 59, 73, 71, 83, 85, 59, 45, 52, 57, 61, 66, 64, 54, 33, 7, -23, 47, 454, 1106, 1309, 616, -154, -140, 52, -85, -133, -38, -42, -76, -57, -57, -80, -76, -52, -45, -45, -35, -23, -9, 9, 23, 33, 47, 71, 99, 126, 147, 154, 159, 169, 171, 154, 116, 66, 23, 0, -14, -21, -26, -33, -33, -21, -19, -28, -23]"
1713890427943253845,"[-19, -19, -7, 7, 14, 14, -4, -21, -7, 9, 9, 11, 7, -11, -26, -7, 9, 4, -2, 4, 16, 23, 30, 33, 26, 28, 42, 49, 52, 47, 35, 33, 47, 57, 59, 59, 54, 57, 66, 76, 78, 73, 64, 71, 80, 83, 85, 83, 73, 78, 88, 92, 92, 80, 57, 47, 61, 85, 102, 102, 78, 38, 7, -4, -9, -16, -19, -11, -2, 2, -7, -54, -30]"
1713890428504322188,"[318, 949, 1256, 699, -119, -226, -14, -104, -176, -104, -119, -145, -95, -69, -71, -57, -45, -38, -19, 0, 7, 9, 19, 33, 57, 80, 102, 119, 140, 159, 180, 195, 197, 192, 173, 142, 104, 69, 38, 11, -4, -11, -11, -2, 0, 0, 4, 11, 21, 30, 35, 35, 30, 19, 16, 30, 30, 28, 35, 38, 40, 47, 47, 49, 52, 52, 54, 61, 57, 54, 54, 30, 7]"
1713890429065421049,"[16, 26, 21, 26, 30, 33, 26, 2, -2, 14, 16, 9, -4, -23, -21, -7, -7, -2, 2, -7, -14, -11, -21, -30, -26, -23, -23, -21, -7, 16, 35, 35, 30, 14, 2, 9, 14, 14, 23, 28, 28, 26, 0, -35, 119, 628, 1164, 1016, 192, -240, -11, 42, -119, -76, -9, -45, -35, 2, -2, -4, 14, 26, 35, 33, 9, 4, 30, 49, 64, 83, 97, 114, 138]"
1713890429626489396,"[166, 188, 188, 164, 133, 121, 114, 83, 38, 0, -26, -38, -38, -33, -30, -33, -30, -16, -2, 4, 11, 11, 14, 23, 35, 42, 42, 38, 40, 49, 57, 59, 61, 54, 47, 40, 35, 45, 49, 38, 38, 52, 57, 59, 61, 52, 52, 64, 66, 57, 42, 33, 35, 40, 42, 38, 4, -40, -38, -7, 9, 16, 2, -30, -35, -19, -19, -33, -45, -45, -33, -23, -40]"
1713890430187588257,"[-64, 73, 554, 1092, 978, 190, -245, -35, 16, -130, -83, -16, -59, -78, -59, -45, -30, -14, -2, 0, 7, 26, 42, 59, 71, 73, 71, 85, 116, 147, 164, 176, 185, 195, 199, 190, 157, 107, 59, 28, 11, -2, -11, -19, -19, -9, 2, 7, 7, -7, -28, -23, 0, 7, 4, 9, 16, 19, 14, 4, 7, 14, 16, 21, 33, 35, 33, 38, 40, 42, 52, 52, 45]"
1713890430748671861,"[33, 28, 33, 40, 38, 35, 30, 14, 4, 2, -7, -4, 14, 7, -14, -19, -14, -23, -35, -28, -16, -11, -14, -19, -49, -16, 318, 902, 1109, 516, -159, -130, 64, -52, -107, -19, -23, -49, -16, 0, -7, 7, 4, -19, -9, 16, 21, 33, 52, 49, 49, 78, 102, 126, 149, 169, 178, 185, 188, 185, 161, 119, 71, 35, 9, -2, -11, -19, -16, -14, -9, 2, 11]"
1713890431309755461,"[14, 19, 26, 33, 45, 47, 45, 49, 45, 35, 42, 52, 42, 23, 11, 21, 35, 33, 30, 33, 35, 45, 52, 54, 52, 49, 52, 52, 45, 42, 42, 38, 40, 45, 35, 2, -30, -28, 2, 16, -9, -45, -54, -47, -40, -30, -21, -16, -19, -16, -19, -42, 16, 371, 923, 1059, 440, -171, -90, 76, -64, -95, -4, -11, -28, 4, 7, 2, 28, 45, 52, 59, 57]"
1713890431870854322,"[52, 71, 92, 104, 107, 95, 107, 145, 171, 185, 192, 190, 192, 192, 173, 135, 88, 42, 19, 9, 2, -4, -9, -16, -4, 11, 19, 21, 4, -19, -7, 2, -9, -2, 2, -2, 7, 23, 26, 30, 28, 23, 33, 45, 49, 47, 42, 42, 49, 59, 61, 64, 57, 57, 64, 71, 73, 71, 66, 64, 71, 80, 80, 71, 54, 52, 59, 69, 88, 107, 102, 80, 57]"
1713890432431922665,"[47, 49, 47, 38, 28, 21, 21, 4, -38, -78, -33, 283, 821, 1023, 476, -176, -164, 35, -71, -126, -49, -76, -135, -114, -80, -78, -69, -47, -35, -21, 0, 9, 19, 38, 52, 71, 95, 111, 130, 154, 169, 183, 192, 192, 183, 169, 135, 92, 57, 26, 4, -2, -11, -14, -11, -19, -11, 4, 7, 11, 23, 26, 33, 40, 40, 45, 49, 49, 54, 59, 57, 59, 61]"
1713890432993021530,"[61, 66, 69, 64, 57, 38, 19, 33, 45, 40, 42, 47, 45, 40, 14, -9, 2, 14, 14, 26, 33, 33, 35, 38, 38, 45, 57, 76, 95, 102, 92, 73, 61, 61, 61, 59, 66, 76, 76, 71, 54, 21, 80, 442, 990, 1106, 457, -169, -83, 85, -54, -90, -21, -49, -66, -38, -42, -52, -38, -21, -11, 4, 14, 14, 21, 42, 61, 78, 97, 109, 123, 149, 171]"
1713890433554120391,"[185, 195, 188, 173, 145, 95, 47, -9, -90, -116, -102, -111, -116, -97, -95, -88, -61, -45, -38, -30, -30, -26, 0, 19, 28, 16, -4, 9, 35, 38, 40, 45, 42, 47, 59, 64, 52, 33, 23, 40, 57, 54, 54, 54, 54, 61, 66, 69, 76, 73, 64, 69, 78, 78, 76, 73, 83, 107, 128, 130, 107, 78, 66, 76, 83, 83, 80, 78, 66, 45, 26, 19, 166]"
1713890434115188734,"[614, 1071, 904, 152, -204, 19, 47, -107, -49, 16, -26, -30, -19, -21, -4, 19, 23, 21, 14, 21, 45, 64, 73, 76, 76, 80, 95, 97, 97, 102, 111, 114, 116, 114, 83, 33, -7, -35, -52, -61, -66, -71, -69, -61, -49, -35, -28, -23, -16, -11, -2, 11, 16, 16, 21, 26, 30, 38, 40, 33, 19, 14, 26, 38, 33, 9, -4, 9, 21, 23, 28, 35, 42]"
1713890434676287595,"[40, 49, 57, 54, 59, 66, 66, 69, 64, 42, 42, 57, 57, 54, 59, 59, 78, 109, 111, 88, 59, 47, 52, 57, 54, 59, 66, 64, 64, 66, 42, 54, 330, 895, 1202, 718, -14, -102, 111, 23, -61, 16, 33, 11, 35, 52, 47, 42, 45, 52, 52, 45, 54, 64, 59, 59, 66, 69, 66, 71, 92, 107, 109, 126, 138, 128, 104, 69, 23, -11, -33, -52, -71]"
1713890435237355938,"[-73, -64, -57, -45, -35, -45, -57, -49, -28, -19, -26, -35, -26, -9, 2, 14, 21, 19, 21, 33, 42, 47, 52, 47, 42, 54, 64, 71, 71, 66, 66, 76, 80, 85, 88, 78, 78, 90, 95, 92, 92, 83, 66, 73, 107, 133, 126, 97, 76, 76, 83, 66, 35, 28, 42, 57, 57, 33, -7, 83, 533, 1121, 1123, 371, -169, -7, 102, -45, -26, 45, 7, -9, 23]"
1713890435798454799,"[21, 7, 14, 28, 30, 33, 42, 47, 40, 19, 19, 49, 80, 99, 114, 123, 135, 154, 166, 169, 152, 111, 64, 28, 0, -21, -30, -42, -45, -40, -30, -26, -19, -19, -23, -9, 7, 14, 16, 16, 19, 30, 42, 40, 19, 2, 14, 28, 33, 33, 35, 38, 40, 47, 54, 61, 64, 69, 69, 66, 71, 69, 73, 83, 80, 71, 66, 73, 78, 76, 76, 80, 88]"
1713890436359523146,"[92, 92, 90, 88, 90, 95, 90, 90, 107, 111, 90, 69, 66, 71, 69, 69, 78, 88, 85, 76, 45, 52, 347, 947, 1268, 742, -45, -145, 78, -7, -97, -14, -11, -57, -33, -19, -52, -66, -47, -33, -26, -14, -2, 14, 33, 45, 57, 76, 95, 119, 140, 154, 166, 176, 176, 169, 138, 85, 45, 11, -16, -30, -35, -42, -40, -35, -30, -19, -11, -9, -2, 4, 9]"
1713890436920622007,"[23, 33, 33, 33, 38, 47, 54, 52, 47, 33, 16, 26, 40, 38, 30, 23, 21, 35, 47, 45, 42, 42, 47, 57, 66, 69, 61, 61, 64, 49, 28, 28, 35, 33, 38, 54, 64, 64, 59, 59, 69, 78, 83, 83, 76, 73, 92, 111, 109, 102, 78, 54, 61, 76, 76, 73, 61, 47, 52, 57, 23, 49, 340, 852, 1059, 545, -111, -142, 45, -52, -111, -30, -26]"
1713890437481690350,"[-54, -33, -16, -11, 7, 21, 9, 2, 21, 45, 57, 69, 66, 54, 76, 116, 145, 161, 176, 183, 192, 190, 157, 116, 80, 30, -7, -23, -40, -47, -52, -59, -49, -33, -23, -16, -16, -19, -16, -11, -2, 7, 4, 7, 21, 33, 35, 38, 35, 38, 45, 49, 52, 54, 52, 52, 59, 66, 69, 66, 61, 66, 78, 85, 85, 80, 78, 78, 88, 90, 73, 52, 52]"
1713890438042789211,"[61, 64, 69, 76, 71, 64, 61, 66, 76, 69, 42, 28, 26, 30, 26, -9, -33, -16, -4, -4, 28, 71, 57, 9, -16, -16, -14, -16, -16, -21, -28, -21, -16, -47, -38, 209, 706, 1021, 654, -40, -195, 30, -9, -111, -42, -19, -49, -26, -9, -7, 14, 21, 23, 42, 52, 59, 76, 90, 99, 114, 128, 142, 142, 128, 164, 240, 257, 226, 221, 209, 164, 111, 66]"
1713890438603857554,"[33, 4, -14, -21, -21, -16, -30, -76, -90, -57, -47, -49, -30, -16, -14, 0, 16, 19, 16, 21, 19, 9, 11, 28, 30, 23, 28, 42, 47, 45, 47, 49, 54, 64, 69, 64, 61, 64, 69, 76, 78, 80, 83, 80, 80, 78, 66, 64, 64, 66, 76, 73, 45, 16, 4, 0, 4, 19, 23, 11, 2, 19, 52, 76, 69, 42, 23, 21, 26, 30, 35, 21, -4]"
1713890439164925897,"[-2, 23, 11, -23, 64, 454, 954, 954, 292, -199, -66, 35, -109, -104, -23, -49, -64, -26, -9, -4, 19, 30, 23, 33, 59, 76, 85, 95, 104, 121, 145, 171, 197, 209, 211, 230, 247, 245, 230, 195, 135, 88, 61, 26, -16, -33, -40, -38, -21, -14, -11, -9, -7, 4, 21, 28, 33, 33, 35, 45, 54, 61, 66, 59, 40, 19, 21, 40, 45, 38, 40, 52, 64]"
1713890439726024762,"[69, 73, 71, 52, 42, 47, 45, 30, 9, 4, 21, 26, 16, 7, -4, -16, -7, 2, 2, 2, 2, 4, 11, 16, 21, 21, 19, 21, 28, 35, 38, 35, 35, 33, 26, 21, 19, 21, 35, 61, 78, 76, 57, 33, 33, 45, 47, 45, 47, 49, 54, 47, 16, 33, 295, 835, 1173, 752, -30, -197, 45, -4, -109, -33, -4, -33, -14, 0, -7, 0, 19, 28, 33]"
1713890440287093105,"[45, 57, 66, 83, 97, 107, 130, 154, 176, 195, 204, 199, 209, 226, 216, 192, 154, 95, 49, 19, -11, -30, -38, -40, -30, -33, -52, -52, -35, -28, -19, -9, -14, -26, -19, -7, 0, 0, 2, -4, -16, -16, -19, -28, -21, -14, -23, -21, -7, -21, -54, -54, -35, -30, -23, -14, -11, -14, -19, -11, 9, 11, 2, 7, 19, 28, 35, 38, 33, 28, 38, 45, 45]"
1713890440848191966,"[59, 85, 95, 92, 80, 69, 61, 47, 23, 23, 45, 49, 47, 40, 7, -14, 192, 737, 1242, 1009, 147, -230, 23, 45, -114, -64, -9, -45, -28, 9, 4, -2, 14, 28, 35, 49, 59, 57, 64, 88, 104, 121, 126, 119, 138, 176, 195, 204, 209, 188, 157, 130, 85, 35, -7, -38, -47, -40, -35, -35, -35, -40, -33, -16, -9, -4, -2, -11, -19, -11, 0, 2, -4]"
1713890441409260309,"[-9, -11, -14, -14, -21, -42, -49, -42, -49, -59, -61, -80, -92, -71, -57, -54, -49, -49, -49, -35, -26, -23, -16, -9, -9, -7, 2, 9, 4, 2, 7, 11, 21, 26, 26, 2, -23, -9, 16, 9, -9, -11, -2, 11, 35, 57, 59, 42, 23, 19, 33, 38, 35, 38, 45, 47, 45, 14, -16, 169, 723, 1271, 1085, 230, -207, 14, 59, -95, -47, 11, -33, -35, -16]"
1713890441970359170,"[-19, -4, 9, 9, 16, 26, 35, 45, 28, 16, 40, 64, 78, 104, 133, 154, 173, 185, 195, 195, 176, 145, 104, 52, 14, -7, -21, -33, -64, -88, -71, -59, -66, -54, -42, -52, -54, -42, -35, -30, -23, -26, -35, -38, -42, -49, -42, -38, -38, -35, -30, -23, -16, -21, -16, -9, -9, -2, 7, 4, 7, 9, 9, 7, -2, -2, 9, 11, 14, 26, 28, 23, 28]"
1713890442531427513,"[35, 38, 47, 52, 45, 26, 11, 21, 38, 40, 38, 40, 42, 49, 59, 59, 54, 52, 59, 61, 42, 9, -9, 4, 38, 61, 66, 57, 33, 19, 28, 40, 47, 49, 45, 47, 54, 28, 19, 235, 766, 1192, 902, 116, -164, 66, 52, -83, -14, 33, -2, 9, 30, 16, 14, 26, 40, 49, 45, 52, 73, 88, 102, 114, 119, 135, 166, 199, 223, 233, 233, 240, 245]"
1713890443092500947,"[230, 199, 145, 78, 38, 23, 11, 2, -33, -73, -64, -38, -57, -99, -119, -116, -111, -102, -95, -88, -88, -88, -73, -59, -49, -42, -45, -49, -38, -21, -11, -11, -14, -14, -4, 7, 14, 16, 14, 14, 26, 35, 40, 42, 35, 19, 9, 23, 42, 40, 30, 40, 49, 52, 59, 61, 52, 49, 64, 76, 73, 73, 76, 73, 73, 78, 76, 80, 90, 92, 85, 90, 95]"
1713890443653594721,"[88, 80, 80, 83, 85, 78, 66, 61, 54, 35, 33, 30, 9, 4, 16, 26, 30, 30, 7, -4, 169, 647, 1094, 897, 149, -195, 30, 71, -69, -30, 23, -9, -4, 23, 33, 35, 33, 26, 35, 54, 59, 61, 76, 99, 111, 128, 149, 166, 190, 214, 218, 216, 218, 216, 202, 171, 119, 54, -2, -40, -66, -88, -97, -92, -88, -83, -73, -71, -78, -83, -80, -95, -97]"
1713890444214663064,"[-78, -64, -59, -52, -45, -33, -26, -26, -30, -42, -47, -26, -14, -19, -16, -11, -2, 7, 11, 14, 16, 19, 26, 35, 38, 35, 49, 49, 33, 35, 47, 42, 42, 49, 52, 59, 69, 64, 59, 64, 71, 76, 76, 71, 71, 76, 83, 85, 80, 78, 80, 78, 76, 88, 104, 114, 121, 123, 104, 71, 54, 52, 45, 26, 11, 28, 38, 9, -26, 45, 395, 933, 1114]"
1713890444775731407,"[547, -126, -111, 99, -14, -85, -28, -47, -57, -11, 0, -4, 0, 11, 28, 49, 59, 66, 69, 71, 85, 109, 130, 149, 166, 192, 221, 228, 221, 221, 214, 188, 147, 88, 21, -33, -76, -99, -99, -92, -95, -97, -97, -88, -71, -54, -47, -52, -52, -38, -33, -42, -38, -30, -33, -40, -57, -57, -33, -28, -35, -26, -11, -7, -2, -2, -2, 11, 23, 28, 28, 26, 26]"
1713890445336830268,"[42, 52, 52, 49, 45, 45, 57, 66, 69, 66, 52, 45, 61, 73, 66, 45, 28, 38, 54, 49, 47, 59, 76, 92, 102, 104, 90, 69, 61, 66, 71, 78, 80, 80, 83, 71, 33, 78, 430, 1028, 1285, 709, -73, -126, 102, -4, -85, 2, -9, -69, -40, -9, -16, -11, 9, 16, 19, 28, 45, 54, 66, 80, 88, 95, 116, 140, 164, 190, 204, 199, 195, 185, 152]"
1713890445897898611,"[92, 28, -19, -54, -83, -90, -104, -130, -128, -104, -92, -90, -85, -76, -61, -54, -52, -42, -40, -35, -23, -14, -14, -4, 2, 4, 11, 16, 11, 16, 21, 21, 19, 9, 4, 11, 19, 23, 33, 35, 16, -7, -14, 2, 21, 16, 16, 23, 30, 35, 45, 49, 45, 47, 59, 69, 69, 69, 71, 69, 69, 76, 83, 80, 69, 57, 54, 61, 66, 76, 92, 104, 102]"
1713890446458997476,"[90, 73, 61, 47, 28, 30, 42, 47, 49, 40, 4, -4, 192, 697, 1149, 935, 171, -180, 33, 64, -80, -47, 2, -33, -42, -14, 0, -2, 4, 21, 33, 42, 47, 35, 16, 16, 45, 76, 85, 85, 102, 130, 140, 147, 154, 149, 135, 109, 64, 16, -28, -73, -88, -83, -83, -90, -104, -104, -83, -71, -66, -54, -49, -49, -40, -23, -11, -4, -4, -7, 9, 30, 35]"
1713890447020065819,"[30, 28, 26, 28, 40, 45, 45, 38, 33, 40, 49, 57, 47, 19, 2, 7, 9, 16, 26, 19, 16, 26, 35, 42, 49, 47, 35, 14, -4, 4, 30, 49, 64, 71, 66, 57, 45, 40, 45, 54, 59, 61, 64, 59, 40, 16, 128, 535, 1028, 1021, 340, -173, -23, 97, -54, -57, 21, 0, -4, 26, 26, 28, 45, 57, 66, 76, 83, 90, 99, 114, 133, 145, 159]"
1713890447581164680,"[185, 214, 242, 261, 271, 273, 257, 218, 183, 128, 45, -11, -38, -66, -76, -66, -71, -66, -57, -88, -126, -123, -111, -111, -102, -90, -78, -71, -66, -52, -38, -38, -33, -19, -14, -7, -2, -4, -16, -21, -14, 0, 4, 4, 11, 16, 21, 30, 38, 38, 40, 45, 47, 54, 59, 59, 64, 69, 71, 76, 78, 78, 76, 73, 80, 92, 92, 88, 88, 83, 71, 69, 76]"
1713890448142273715,"[76, 66, 64, 71, 90, 109, 111, 95, 71, 59, 61, 64, 54, 35, 26, 40, 57, 49, 7, -33, 161, 773, 1397, 1225, 285, -233, -2, 64, -104, -80, -30, -71, -59, -14, -11, -11, -2, 2, 14, 35, 47, 52, 54, 61, 83, 102, 121, 145, 164, 183, 209, 230, 238, 240, 223, 195, 152, 107, 71, 40, 2, -26, -33, -23, -14, -16, -28, -35, -21, -7, -7, -7, -9]"
1713890448703331884,"[-16, -19, -16, -21, -30, -47, -71, -76, -59, -52, -71, -90, -76, -57, -49, -35, -30, -38, -28, -14, -21, -30, -26, -23, -19, 0, 11, 11, 9, 9, 21, 38, 42, 40, 40, 38, 47, 59, 64, 64, 59, 59, 66, 73, 80, 80, 73, 71, 80, 88, 90, 92, 80, 64, 71, 85, 88, 88, 80, 80, 90, 95, 92, 90, 83, 78, 90, 119, 135, 130, 116, 90, 52]"
1713890449264400227,"[35, 45, 49, 45, 49, 57, 59, 21, -47, 76, 599, 1218, 1202, 385, -230, -85, 40, -114, -102, -19, -52, -59, -19, -7, -2, 9, 16, 30, 42, 49, 61, 71, 80, 99, 116, 128, 152, 178, 199, 221, 238, 247, 247, 216, 171, 130, 90, 45, 9, -26, -52, -61, -71, -78, -69, -64, -59, -49, -47, -40, -26, -26, -21, -14, -16, -35, -57, -45, -23, -23, -26, -16, -9]"
1713890449825468574,"[-4, 7, 2, -19, -21, -26, -33, -19, -7, -4, 0, 4, 9, 21, 26, 26, 26, 30, 40, 49, 52, 49, 49, 49, 57, 66, 69, 66, 61, 61, 69, 76, 76, 71, 69, 64, 66, 73, 73, 69, 66, 71, 78, 85, 85, 80, 76, 78, 85, 90, 92, 88, 83, 88, 99, 99, 95, 90, 64, 42, 66, 102, 107, 92, 80, 69, 52, 40, 42, 42, 40, 47, 59]"
1713890450386567435,"[57, 23, -4, 171, 697, 1197, 1021, 218, -221, -28, 28, -126, -95, -33, -78, -78, -30, -30, -42, -40, -47, -47, -26, -11, -2, 0, -9, 4, 38, 64, 83, 99, 116, 140, 166, 180, 183, 169, 138, 104, 64, 26, -4, -33, -54, -54, -45, -35, -30, -35, -59, -73, -52, -30, -30, -30, -23, -21, -26, -21, -9, -9, -7, 7, 19, 19, 21, 23, 28, 33, 40, 45, 42]"
1713890450947635778,"[35, 42, 49, 54, 61, 61, 57, 57, 66, 76, 76, 66, 57, 57, 64, 71, 66, 54, 47, 57, 66, 66, 54, 33, 21, 33, 47, 54, 45, 35, 42, 49, 42, 45, 49, 49, 54, 57, 54, 59, 59, 54, 59, 54, 47, 61, 59, 30, 14, 7, 11, 23, 21, 21, 26, 26, 16, -2, 88, 487, 1006, 1018, 340, -197, -73, 45, -109, -128, -59, -83, -97, -61, -49]"
1713890451508734639,"[-57, -40, -19, -14, -7, 7, 16, 16, 0, -7, 33, 73, 88, 109, 138, 159, 185, 207, 207, 199, 178, 133, 83, 35, -4, -28, -42, -47, -42, -38, -38, -33, -28, -14, 0, -2, -26, -42, -26, -16, -26, -21, -9, -7, -7, 4, 23, 33, 30, 28, 38, 49, 54, 54, 54, 52, 52, 64, 69, 66, 66, 73, 73, 73, 83, 90, 83, 76, 80, 85, 88, 80, 57]"
1713890452069833500,"[47, 59, 71, 73, 73, 54, 33, 38, 54, 59, 59, 54, 52, 64, 71, 69, 64, 57, 66, 92, 99, 92, 80, 54, 38, 45, 45, 33, 19, -14, -40, -42, -66, -102, 40, 537, 1121, 1099, 309, -261, -102, 4, -152, -133, -49, -78, -83, -52, -47, -35, -7, 2, 0, 2, 21, 42, 52, 64, 73, 76, 99, 133, 147, 154, 161, 173, 190, 207, 207, 180, 133, 83, 45]"
1713890452630901843,"[19, -2, -16, -28, -33, -23, -11, -4, -9, -28, -28, -4, 7, 7, 14, 14, 16, 28, 35, 40, 40, 33, 11, 2, 14, 21, 19, 16, 23, 28, 35, 42, 45, 42, 45, 54, 61, 64, 59, 59, 61, 71, 78, 80, 73, 71, 76, 78, 83, 85, 85, 85, 80, 73, 64, 54, 59, 64, 61, 64, 69, 71, 76, 78, 73, 73, 71, 54, 49, 59, 59, 54, 57]"
1713890453192000708,"[42, 23, 16, 9, 21, 47, 40, 11, 2, -7, -9, 2, 4, -14, -38, -57, -49, -42, -85, -71, 235, 840, 1221, 785, -47, -240, 7, -47, -161, -80, -54, -85, -57, -35, -40, -28, -7, 2, 11, 16, 30, 45, 54, 59, 69, 73, 78, 90, 114, 149, 178, 188, 190, 190, 178, 161, 123, 66, 21, -4, -26, -38, -33, -23, -30, -35, -26, -16, -11, -4, -2, 0, 9]"
1713890453753069051,"[19, 21, 19, 28, 28, 19, 2, -21, -33, -35, -42, -33, -16, -14, -19, -19, -9, 4, 14, 11, 9, 14, 23, 28, 35, 38, 30, 28, 38, 49, 52, 49, 47, 47, 54, 59, 47, 26, 26, 30, 35, 45, 54, 54, 45, 40, 49, 54, 54, 66, 85, 102, 107, 88, 71, 59, 42, 38, 47, 54, 57, 52, 28, -21, -14, 240, 776, 1130, 737, -40, -228, 14, -47]"
1713890454314137394,"[-199, -142, -95, -114, -92, -59, -61, -61, -35, -19, -9, 2, -9, -23, 0, 33, 47, 66, 85, 104, 140, 180, 207, 223, 223, 214, 197, 152, 88, 38, -4, -45, -59, -54, -49, -49, -52, -47, -30, -16, -14, -9, -7, -2, 11, 23, 30, 33, 30, 35, 49, 54, 52, 52, 57, 59, 61, 66, 69, 59, 45, 47, 57, 61, 59, 45, 21, 21, 40, 47, 45, 42, 42]"
1713890454875236255,"[47, 57, 64, 61, 59, 61, 66, 73, 78, 64, 38, 40, 52, 57, 61, 61, 49, 45, 45, 54, 78, 85, 71, 54, 45, 47, 54, 49, 52, 57, 59, 61, 47, 2, 80, 502, 1111, 1266, 595, -121, -83, 102, -40, -83, 7, -11, -30, 11, 16, -2, -2, -2, 9, 28, 35, 40, 47, 42, 19, -2, 21, 57, 64, 76, 109, 130, 135, 140, 138, 123, 92, 47, -4]"
1713890455436304598,"[-40, -61, -73, -71, -71, -76, -73, -78, -83, -78, -78, -73, -59, -52, -42, -26, -19, -16, -11, -7, 4, 23, 26, 21, 28, 33, 35, 45, 54, 49, 45, 52, 61, 66, 66, 61, 69, 78, 78, 78, 80, 73, 64, 69, 76, 80, 80, 73, 73, 83, 69, 38, 40, 52, 49, 59, 73, 73, 78, 83, 73, 76, 95, 99, 92, 83, 88, 114, 140, 147, 133, 102, 83]"
1713890455997403459,"[76, 66, 66, 61, 30, 21, 54, 66, 26, 66, 426, 1018, 1242, 652, -95, -116, 104, -14, -85, 11, 14, -21, 9, 28, 26, 38, 54, 45, 35, 54, 66, 52, 40, 33, 35, 59, 92, 111, 121, 123, 130, 138, 126, 104, 85, 49, -4, -47, -69, -85, -102, -114, -116, -104, -92, -90, -85, -78, -61, -45, -40, -30, -11, -14, -28, -26, -7, 0, -2, -2, 4, 11, 16]"
1713890456558471806,"[21, 19, 9, 9, 23, 40, 42, 35, 42, 59, 57, 57, 66, 52, 30, 30, 40, 49, 52, 49, 47, 49, 52, 49, 40, 38, 45, 47, 49, 57, 61, 59, 59, 64, 66, 49, 23, 23, 38, 38, 40, 54, 57, 49, 49, 54, 76, 107, 116, 109, 109, 107, 102, 121, 145, 95, 0, -7, 52, 66, 26, 9, 216, 754, 1261, 1094, 285, -152, 54, 102, -52, -19, 35]"
1713890457119540149,"[11, 23, 47, 49, 57, 64, 64, 61, 42, 42, 38, 14, 30, 61, 45, 30, 45, 59, 80, 111, 123, 126, 135, 135, 121, 83, 30, -19, -71, -104, -95, -83, -92, -92, -71, -54, -61, -57, -35, -26, -21, -4, 16, 28, 30, 33, 21, -2, 0, 19, 26, 26, 28, 33, 45, 42, 40, 42, 40, 52, 66, 64, 45, 45, 61, 73, 73, 66, 71, 78, 73, 69, 80]"
1713890457680623753,"[85, 71, 71, 83, 90, 88, 66, 30, 14, 35, 45, 33, 42, 45, 35, 42, 52, 59, 66, 54, 21, 4, 28, 45, 52, 73, 83, 78, 64, 49, 40, 42, 52, 57, 59, 66, 73, 52, 4, 19, 257, 735, 1040, 697, 21, -145, 69, 38, -66, -7, 21, -11, -2, 26, 30, 16, 7, 40, 88, 95, 83, 83, 99, 116, 128, 135, 133, 138, 166, 190, 190, 190, 192]"
1713890458241707353,"[180, 164, 138, 85, 26, -23, -64, -80, -83, -90, -107, -130, -133, -135, -147, -128, -109, -109, -104, -85, -66, -59, -52, -42, -42, -38, -16, -2, -4, -21, -26, 2, 16, 7, 9, 14, 11, 19, 35, 35, 28, 38, 52, 52, 59, 64, 59, 59, 64, 71, 80, 80, 71, 71, 85, 95, 95, 95, 92, 90, 83, 73, 64, 61, 78, 107, 121, 121, 114, 88, 76, 90, 90]"
1713890458802775696,"[71, 66, 69, 71, 76, 47, 9, 154, 576, 949, 771, 109, -214, -11, 38, -83, -33, 21, -11, -7, 16, 4, -2, 11, 26, 28, 40, 52, 61, 73, 92, 97, 107, 140, 169, 188, 211, 228, 230, 235, 235, 211, 176, 126, 59, 0, -45, -80, -102, -102, -99, -102, -116, -123, -109, -102, -95, -76, -64, -59, -52, -42, -35, -23, -14, -11, -7, -2, 7, 16, 16, -9, -40]"
1713890459363844039,"[-38, -19, -9, -4, -9, -28, -35, -14, 2, 4, 2, -7, -11, -4, 14, 30, 47, 59, 64, 54, 38, 33, 38, 40, 49, 57, 64, 69, 61, 23, 4, 173, 656, 1133, 978, 221, -173, 35, 90, -57, -28, 28, -9, -14, 14, 14, 9, 21, 38, 45, 57, 73, 71, 76, 97, 119, 135, 149, 161, 190, 223, 245, 254, 242, 207, 178, 152, 107, 52, 4, -28, -40, -38]"
1713890459924942904,"[-30, -35, -47, -54, -40, -28, -21, -19, -45, -69, -49, -30, -26, -19, -35, -57, -40, -30, -45, -42, -40, -49, -42, -28, -23, -16, -19, -26, -19, -2, 7, 4, 4, 2, -9, -14, 2, 11, 2, 4, 14, 11, 11, 21, 38, 52, 71, 76, 57, 38, 33, 38, 47, 57, 59, 54, 33, 7, -19, -23, 185, 735, 1213, 949, 135, -199, 9, 2, -130, -71, -23, -52, -33]"
1713890460486011247,"[-4, -11, -7, 14, 26, 35, 45, 49, 59, 73, 85, 83, 83, 102, 130, 154, 180, 197, 207, 214, 216, 204, 169, 116, 66, 19, -23, -40, -35, -33, -33, -28, -21, -11, -4, -2, 9, 16, 16, 23, 33, 33, 40, 45, 45, 49, 54, 52, 49, 33, 9, 16, 30, 30, 38, 42, 23, 4, 0, 2, 14, 19, 11, 2, -2, -14, -11, 0, -2, -4, 4, 0, 7]"
1713890461047110108,"[26, 14, -4, 7, 23, 26, 23, 19, 9, -2, 2, 26, 54, 61, 49, 35, 23, 11, 7, 19, 28, 28, 35, 49, 49, 19, -11, 154, 666, 1187, 1054, 268, -190, -2, 69, -69, -40, 11, -23, -11, 28, 9, -23, -16, 4, 14, 30, 52, 45, 30, 45, 71, 90, 111, 135, 149, 166, 195, 216, 226, 228, 202, 164, 135, 95, 54, 23, -4, -14, 0, 7, 0, 4]"
1713890461608178451,"[7, 11, 21, 30, 38, 33, 4, -14, -7, 2, 11, 16, 14, 19, 33, 38, 42, 45, 40, 40, 52, 59, 61, 61, 61, 61, 69, 73, 78, 71, 66, 78, 88, 83, 61, 23, 7, 28, 40, 26, 11, 4, -4, -9, -9, -11, -9, -11, -19, -9, 4, 7, 9, 9, 7, 14, 23, 26, 28, 28, 28, 35, 45, 49, 42, 30, 42, 73, 95, 92, 76, 45, 16]"
1713890462169246794,"[19, 33, 42, 42, 40, 42, 49, 45, 4, -2, 268, 847, 1190, 752, -14, -173, 49, -4, -104, -26, -2, -35, -14, 9, 9, 28, 35, 9, 0, 26, 38, 28, 33, 52, 69, 83, 109, 138, 157, 180, 202, 207, 214, 226, 211, 176, 135, 90, 57, 33, 9, -4, -2, -2, 2, 7, 4, 9, 19, 23, 28, 38, 35, 26, 26, 33, 38, 40, 42, 47, 49, 49, 49]"
1713890462730345659,"[54, 54, 54, 57, 54, 52, 38, 19, 28, 42, 38, 40, 38, 26, 23, 28, 26, 23, 23, 2, -28, -42, -57, -71, -64, -54, -49, -40, -35, -33, -30, -23, -16, -11, -7, 0, 2, 2, 11, 26, 26, 16, 21, 30, 33, 30, 33, 47, 71, 85, 88, 69, 49, 42, 35, 33, 40, 45, 45, 49, 49, 28, 16, 176, 630, 1085, 956, 249, -164, 19, 78, -76, -42]"
1713890463291414002,"[21, -11, -4, 9, -16, -2, 33, 40, 42, 52, 59, 71, 76, 61, 69, 92, 111, 138, 166, 190, 209, 216, 223, 233, 226, 199, 149, 88, 42, 16, -2, -21, -28, -30, -26, -19, -11, -7, -9, -14, 0, 16, 19, 23, 26, 16, 14, 28, 40, 42, 40, 33, 35, 35, 23, 21, 23, 16, 21, 30, 16, 4, -2, -19, -19, -2, 2, -2, -7, -9, -7, 4, 14]"
1713890463852482345,"[19, 9, 9, 11, -7, -38, -47, -42, -40, -35, -19, -9, -21, -42, -38, -23, -19, -9, 16, 35, 45, 45, 35, 23, 16, 14, 21, 28, 38, 42, 40, 30, 0, -2, 223, 737, 1152, 895, 128, -199, 26, 49, -97, -47, 9, -26, -11, 19, 9, 11, 35, 45, 54, 69, 73, 76, 76, 88, 114, 128, 138, 157, 183, 214, 235, 242, 249, 245, 211, 169, 111, 33, -7]"
1713890464413581206,"[-19, -45, -61, -52, -57, -71, -69, -57, -47, -52, -76, -83, -73, -76, -85, -80, -69, -64, -59, -47, -38, -35, -33, -26, -19, -16, -19, -21, -23, -19, -11, -4, 4, 9, 7, 14, 21, 26, 30, 26, 28, 40, 47, 47, 47, 47, 54, 57, 59, 66, 66, 57, 59, 78, 83, 76, 71, 69, 69, 66, 54, 52, 45, 21, 19, 42, 61, 78, 85, 78, 64, 52, 47]"
1713890464974649549,"[52, 54, 47, 45, 61, 69, 47, -9, -11, 249, 792, 1161, 811, 38, -199, 42, 30, -99, -57, -33, -59, -33, -2, -7, -4, 11, 19, 30, 47, 54, 52, 64, 83, 92, 102, 116, 126, 142, 173, 195, 197, 195, 178, 142, 116, 90, 38, -19, -52, -71, -95, -111, -102, -92, -99, -102, -111, -114, -85, -78, -88, -69, -42, -38, -26, -16, -23, -16, 2, 11, 19, 16, 11]"
1713890465535748410,"[21, 35, 38, 38, 38, 30, 33, 47, 52, 40, 2, -16, 2, 19, 21, 28, 28, 23, 28, 40, 47, 52, 47, 42, 54, 69, 73, 76, 69, 66, 73, 80, 85, 85, 80, 76, 78, 83, 90, 104, 116, 104, 90, 92, 80, 57, 49, 59, 57, 33, 21, 33, 33, 14, 7, 145, 557, 1004, 923, 247, -178, 4, 97, -54, -45, 26, 4, 0, 28, 28, 33, 52, 57]"
1713890466096816753,"[45, 30, 35, 54, 66, 73, 80, 61, 47, 73, 95, 109, 133, 142, 147, 164, 159, 133, 99, 52, 7, -23, -52, -66, -64, -66, -61, -52, -49, -45, -28, -21, -30, -35, -26, -11, -4, 0, 11, 16, 7, -7, -21, -16, -4, 2, 4, 9, 11, 16, 28, 33, 30, 38, 42, 40, 47, 54, 54, 59, 61, 57, 66, 71, 54, 42, 54, 61, 64, 69, 69, 69, 64]"
1713890466657890187,"[69, 80, 80, 69, 59, 42, 38, 52, 57, 61, 85, 107, 109, 97, 80, 66, 61, 59, 71, 85, 80, 78, 83, 61, 23, 104, 459, 949, 1047, 466, -114, -54, 107, -21, -78, -19, -21, -26, 0, 2, 0, 23, 40, 47, 54, 59, 59, 78, 95, 102, 114, 123, 138, 161, 185, 192, 178, 171, 178, 183, 166, 133, 78, 11, -38, -61, -78, -85, -85, -97, -99, -80, -64]"
1713890467218983961,"[-59, -54, -52, -45, -33, -23, -16, -26, -52, -54, -28, -16, -16, -14, -21, -26, -16, -4, 0, -2, -2, 2, 11, 16, 21, 16, -7, -26, -19, -2, 2, 2, 4, 11, 23, 28, 33, 33, 28, 33, 47, 52, 49, 45, 47, 52, 47, 52, 78, 85, 66, 54, 49, 52, 54, 47, 42, 54, 64, 69, 66, 40, 40, 245, 704, 1033, 742, 59, -169, 64, 80, -42, 0]"
1713890467780052304,"[42, 9, 19, 52, 52, 47, 45, 47, 57, 71, 73, 59, 61, 83, 102, 119, 140, 161, 176, 176, 178, 207, 223, 211, 197, 169, 109, 49, 4, -28, -49, -61, -64, -61, -61, -59, -61, -78, -83, -69, -59, -57, -49, -52, -57, -52, -61, -59, -45, -45, -38, -26, -30, -33, -23, -23, -19, -11, -7, -2, 0, -2, 0, 2, 4, 11, 21, 21, 21, 19, 9, 11, 14]"
1713890468341120647,"[11, 33, 61, 69, 71, 61, 38, 21, 11, 4, 14, 7, -23, -28, -11, -23, -61, 16, 433, 1059, 1216, 521, -185, -123, 57, -92, -128, -28, -47, -83, -54, -38, -38, -16, 0, 2, 9, 19, 28, 47, 66, 83, 97, 111, 135, 166, 192, 214, 228, 233, 238, 242, 218, 169, 109, 57, 28, 14, 0, -7, -19, -33, -23, -4, 0, 2, 4, 11, 19, 23, 33, 40, 33]"
1713890468902219508,"[30, 40, 52, 52, 33, -14, -49, -38, -28, -28, -21, -38, -59, -42, -33, -42, -52, -64, -69, -61, -66, -66, -57, -59, -54, -35, -30, -26, -21, -28, -9, 33, 52, 47, 30, 7, 4, 19, 26, 30, 35, 26, 28, 42, 23, -9, 102, 537, 1080, 1068, 347, -180, -42, 59, -78, -61, 11, -16, -21, 9, 16, 21, 38, 49, 47, 49, 64, 83, 99, 116, 95, 69, 104]"
1713890469463287851,"[154, 173, 192, 209, 221, 238, 252, 238, 178, 95, 23, -14, -28, -30, -47, -69, -64, -40, -28, -23, -16, -16, -9, 4, 16, 21, 23, 30, 40, 45, 49, 54, 52, 52, 59, 66, 71, 69, 66, 71, 71, 71, 71, 57, 45, 49, 52, 52, 64, 64, 54, 59, 69, 71, 71, 61, 49, 47, 52, 52, 57, 52, 19, -21, -33, -30, -28, -28, -28, -23, -19, -16, -14]"
1713890470024356198,"[-11, 2, 9, 4, 7, -11, -57, -61, -30, -26, -28, -19, -11, -7, 0, -21, -47, 88, 526, 1028, 990, 288, -199, -33, 73, -71, -61, 9, -14, -16, 16, 23, 26, 30, 21, 21, 45, 73, 97, 102, 88, 78, 92, 107, 121, 166, 216, 242, 280, 309, 292, 268, 240, 202, 152, 69, -7, -23, -14, -16, -28, -28, -23, -19, -11, -14, -11, 0, -7, -33, -16, 14, 16]"
1713890470585434715,"[21, 35, 33, 16, 19, 35, 42, 42, 35, 9, 0, 19, 26, 19, 21, 26, 19, 21, 38, 40, 33, 35, 40, 45, 47, 40, 23, 19, 19, 9, 9, 19, 38, 57, 61, 40, 16, 2, -16, -23, -16, -9, 2, 4, -9, -9, -16, -33, 121, 573, 1004, 818, 83, -259, -28, 9, -145, -114, -61, -88, -71, -45, -54, -40, -11, -2, 9, 23, 33, 45, 66, 85, 99]"
1713890471146523402,"[111, 128, 159, 192, 216, 238, 249, 247, 247, 235, 195, 138, 61, -2, -21, -26, -52, -69, -64, -59, -49, -33, -21, -14, -16, -11, 0, 16, 26, 30, 26, 28, 45, 49, 54, 61, 61, 57, 64, 71, 66, 42, 26, 38, 47, 47, 57, 61, 45, 30, 45, 54, 52, 54, 57, 57, 61, 69, 71, 71, 69, 69, 76, 85, 83, 76, 78, 78, 80, 90, 97, 83, 59]"
1713890471707591745,"[54, 80, 102, 104, 92, 66, 33, 11, -7, -33, -45, -35, -28, -26, -26, -52, -64, 154, 709, 1180, 914, 85, -252, -9, 7, -133, -73, -28, -64, -40, -7, -11, -2, 9, -11, -19, 7, 21, 28, 35, 42, 61, 83, 107, 126, 149, 180, 207, 216, 226, 228, 211, 183, 135, 83, 47, 21, -2, -7, -4, -11, -9, 0, 4, 16, 23, 26, 30, 35, 40, 47, 40, 26]"
1713890472268660088,"[30, 40, 45, 54, 57, 52, 40, 26, 30, 49, 57, 52, 52, 54, 54, 59, 59, 59, 61, 69, 76, 83, 85, 80, 76, 76, 64, 38, 35, 47, 35, 23, 40, 54, 49, 47, 35, 23, 30, 40, 40, 38, 30, 19, 19, 19, 7, -4, 0, 9, 14, 16, 11, 4, 7, 14, 16, 30, 52, 57, 59, 52, 23, 4, 9, 9, 2, 14, 33, 35, 30, 14, -23]"
1713890472829758953,"[33, 402, 980, 1175, 571, -159, -161, 59, -54, -123, -40, -38, -54, -19, 0, -11, -7, 14, 14, -7, -2, 11, 4, 16, 49, 64, 78, 92, 114, 149, 180, 190, 202, 209, 202, 188, 164, 121, 73, 30, -2, -16, -19, -16, -14, -16, -16, -7, 4, 11, 16, 14, 14, 11, 4, 11, 21, 14, 16, 30, 38, 45, 47, 33, 16, 21, 35, 33, 26, 26, 21, 11, 9]"
1713890473390827296,"[4, -9, -14, -9, -4, 0, -9, -28, -38, -26, -19, -30, -59, -71, -59, -49, -42, -28, -21, -21, -16, -11, 0, 9, 11, 16, 23, 23, 28, 40, 42, 40, 47, 49, 54, 64, 59, 61, 66, 69, 95, 116, 109, 97, 71, 42, 49, 61, 45, 42, 59, 64, 66, 57, 23, 92, 452, 971, 1109, 533, -102, -71, 114, -9, -57, 28, 16, -7, 28, 42, 40, 47, 52]"
1713890473951895639,"[61, 73, 76, 78, 69, 61, 80, 102, 111, 123, 130, 140, 173, 197, 202, 207, 204, 185, 154, 102, 38, -2, -30, -49, -54, -57, -73, -85, -80, -78, -80, -69, -64, -66, -59, -52, -61, -64, -49, -40, -40, -28, -16, -19, -21, -14, -9, -7, 2, 7, 2, 2, 11, 23, 21, 21, 26, 23, 28, 38, 42, 45, 40, 38, 42, 59, 69, 54, 28, 11, -2, -9, 7]"
1713890474512994500,"[14, 9, 14, 26, 30, 33, 35, 16, -4, 14, 35, 26, 14, 23, 49, 71, 83, 80, 64, 47, 45, 57, 64, 66, 69, 61, 52, 38, 4, 61, 395, 906, 1075, 537, -102, -88, 107, -11, -71, 19, 19, -2, 23, 26, 23, 47, 61, 64, 66, 66, 83, 102, 111, 119, 128, 145, 173, 202, 216, 226, 233, 238, 223, 188, 157, 121, 59, -2, -38, -61, -85, -102, -119]"
1713890475074062843,"[-128, -116, -102, -97, -92, -90, -85, -76, -61, -47, -57, -78, -71, -47, -35, -28, -23, -30, -45, -35, -19, -14, -14, -9, 0, 4, 11, 21, 21, 21, 26, 35, 47, 47, 45, 45, 49, 59, 69, 66, 64, 69, 76, 78, 83, 83, 80, 80, 83, 78, 69, 64, 64, 64, 57, 42, 30, 49, 76, 78, 64, 54, 49, 47, 54, 59, 59, 64, 73, 71, 49, 9, 102]"
1713890475635156621,"[559, 1187, 1271, 516, -157, -57, 104, -59, -111, -38, -54, -69, -30, -19, -26, -4, 11, 9, 23, 45, 45, 42, 49, 59, 76, 92, 111, 135, 152, 159, 169, 169, 173, 180, 161, 114, 64, 19, -16, -38, -57, -83, -95, -85, -73, -66, -59, -59, -76, -92, -78, -59, -54, -40, -33, -33, -21, -4, -2, -2, 0, 7, 21, 33, 33, 28, 30, 42, 52, 57, 57, 57, 54]"
1713890476196230047,"[49, 45, 54, 57, 38, 21, 21, 35, 40, 38, 42, 49, 52, 54, 61, 61, 59, 57, 61, 71, 80, 80, 73, 73, 78, 80, 85, 90, 80, 71, 78, 85, 90, 95, 99, 95, 80, 69, 69, 71, 64, 38, 26, 45, 61, 45, 2, 16, 280, 833, 1218, 849, 49, -178, 66, 38, -78, -14, 4, -30, 4, 35, 26, 14, 4, 0, 21, 33, 38, 40, 33, 33, 42]"
1713890476757303481,"[57, 76, 88, 97, 130, 161, 171, 173, 157, 126, 104, 80, 38, -7, -45, -71, -71, -66, -64, -61, -59, -57, -45, -42, -45, -35, -26, -26, -16, 0, 4, 9, 14, 2, -21, -26, -7, -2, -7, 0, 14, 19, 23, 26, 23, 26, 35, 47, 57, 52, 49, 52, 57, 64, 69, 64, 49, 52, 64, 71, 76, 73, 71, 71, 78, 83, 83, 80, 83, 85, 88, 90, 92]"
1713890477318397255,"[92, 92, 88, 88, 92, 107, 126, 135, 126, 109, 85, 59, 54, 59, 40, 28, 42, 47, 38, 23, 9, 157, 602, 1061, 964, 254, -214, -57, 42, -95, -83, -14, -40, -40, -4, -2, 4, 28, 30, 33, 52, 61, 71, 83, 90, 99, 102, 99, 119, 149, 171, 195, 211, 204, 197, 195, 157, 95, 42, -4, -40, -66, -85, -97, -92, -80, -76, -73, -64, -57, -57, -47, -23]"
1713890477879465598,"[-14, -16, -14, -9, -9, -9, -9, -9, -21, -35, -23, -4, -9, -11, -2, -2, 2, 19, 16, -19, -38, -16, -2, 0, 9, 14, 11, 14, 23, 30, 38, 40, 40, 40, 42, 49, 64, 71, 73, 80, 78, 59, 47, 49, 52, 61, 69, 71, 69, 61, 49, 33, 111, 478, 994, 1073, 445, -142, -52, 123, -4, -45, 38, 28, 7, 38, 42, 30, 45, 57, 49, 59, 64]"
1713890478440554289,"[59, 73, 97, 107, 126, 147, 157, 183, 221, 249, 266, 254, 223, 218, 207, 152, 85, 11, -54, -69, -66, -73, -73, -69, -71, -61, -45, -40, -49, -69, -71, -54, -42, -33, -19, -26, -42, -38, -33, -38, -38, -38, -42, -35, -26, -19, -19, -21, -19, -7, 4, 11, 16, 14, 11, 16, 23, 30, 28, 21, 9, 4, 14, 28, 23, 14, 28, 54, 78, 90, 76, 49, 35]"
1713890479001632802,"[40, 47, 49, 33, 4, 4, 21, 21, -19, -69, 123, 730, 1302, 1054, 138, -271, -16, 9, -142, -88, -40, -76, -57, -26, -26, -11, 4, 4, 16, 28, 33, 49, 69, 78, 92, 102, 116, 145, 171, 195, 218, 228, 233, 245, 238, 199, 149, 99, 61, 38, 11, -14, -38, -40, -21, -9, -9, -2, 9, 7, 4, 11, 21, 23, 28, 33, 40, 40, 26, 4, -4, 7, 14]"
1713890479562701145,"[11, 16, 23, 14, 4, 7, -9, -23, -9, -7, -30, -47, -54, -59, -49, -38, -35, -30, -26, -23, -11, -2, -4, -2, 2, 9, 19, 21, 16, 16, 21, 28, 33, 45, 64, 83, 88, 76, 61, 57, 59, 54, 45, 38, 47, 61, 54, 30, 0, 80, 499, 1130, 1285, 566, -157, -85, 109, -35, -78, 7, -14, -57, -38, -19, -26, -19, 7, 23, 30, 38, 42, 49, 69]"
1713890480123800010,"[88, 97, 97, 90, 97, 138, 178, 190, 195, 197, 192, 180, 149, 99, 52, 9, -19, -19, -11, -11, -16, -19, -11, 7, 21, 26, 23, 19, 26, 40, 45, 52, 61, 57, 45, 54, 69, 71, 61, 54, 61, 71, 71, 76, 76, 59, 49, 57, 59, 59, 52, 47, 45, 30, -2, -30, -38, -33, -23, -11, -7, -4, -9, -11, -2, 2, -7, -16, -14, -11, -2, 11, 23]"
1713890480684868353,"[26, 21, 21, 28, 38, 45, 49, 45, 45, 52, 57, 47, 30, 30, 59, 85, 85, 71, 49, 45, 54, 59, 64, 71, 71, 57, 47, 40, 11, 126, 616, 1230, 1209, 390, -185, -11, 97, -69, -61, 19, -7, -9, 26, 26, 23, 40, 40, 14, 2, 23, 38, 47, 64, 73, 80, 102, 128, 140, 157, 180, 199, 209, 214, 211, 197, 154, 107, 73, 35, 4, -9, -26, -30]"
1713890481245936696,"[-23, -16, -7, 7, 19, 23, 28, 30, 38, 35, 14, 11, 26, 28, 30, 28, 21, 28, 38, 33, 30, 26, 11, 11, 23, 21, 19, 19, 7, 4, 2, -4, -4, 4, 9, 11, 11, 9, 11, 9, -11, -30, -26, -14, -14, -11, 0, 4, -7, -14, -7, 2, 7, 16, 26, 26, 28, 33, 45, 52, 54, 61, 61, 64, 71, 76, 69, 69, 83, 107, 123, 128, 104]"
1713890481807005039,"[78, 73, 80, 83, 90, 99, 85, 66, 57, 35, 40, 292, 830, 1173, 780, 26, -154, 76, 23, -88, -2, 28, -26, -16, 14, 11, 26, 52, 59, 57, 54, 59, 57, 42, 57, 88, 97, 111, 142, 161, 178, 199, 207, 218, 233, 223, 195, 149, 85, 45, 26, 7, -2, -2, -16, -16, 0, 11, 23, 26, 16, 23, 38, 42, 47, 47, 40, 38, 38, 42, 45, 30, 16]"
1713890482368098817,"[23, 26, 14, 7, -4, -14, -4, 11, 14, 4, -16, -28, -14, 0, -2, -4, -2, -2, 14, 28, 30, 28, 33, 38, 30, 7, -2, 16, 23, 14, 14, 16, 28, 40, 33, 33, 47, 54, 59, 61, 69, 80, 78, 76, 92, 85, 61, 76, 119, 140, 135, 121, 97, 92, 104, 104, 104, 111, 114, 109, 111, 88, 49, 176, 621, 1094, 987, 280, -133, 52, 119, -28, -2]"
1713890482929172243,"[66, 30, 28, 61, 57, 57, 88, 99, 90, 95, 109, 128, 135, 111, 102, 133, 154, 159, 164, 164, 178, 190, 185, 188, 192, 164, 109, 59, 23, -2, -28, -47, -57, -66, -76, -76, -76, -71, -59, -47, -45, -38, -28, -23, -9, -2, -4, 4, 19, 19, 19, 28, 26, 14, 2, 9, 26, 23, 21, 28, 35, 40, 47, 52, 52, 54, 59, 64, 71, 73, 73, 76, 76]"
1713890483490240590,"[78, 85, 88, 85, 71, 52, 57, 76, 76, 71, 71, 52, 16, 16, 35, 35, 26, 35, 49, 52, 52, 66, 95, 114, 116, 97, 71, 64, 66, 69, 73, 78, 76, 69, 64, 57, 35, 128, 523, 1033, 1066, 411, -128, -14, 107, -49, -64, 16, -2, -11, 23, 21, 16, 45, 64, 66, 69, 61, 52, 59, 69, 83, 95, 97, 114, 142, 147, 152, 173, 176, 173, 176, 159]"
1713890484051308933,"[126, 73, 11, -35, -71, -92, -88, -85, -95, -88, -66, -52, -47, -61, -80, -64, -35, -23, -16, -16, -14, 2, 19, 26, 33, 30, 26, 35, 52, 59, 59, 54, 52, 64, 76, 64, 47, 47, 57, 71, 88, 85, 69, 59, 73, 90, 102, 104, 95, 80, 83, 88, 90, 95, 95, 78, 73, 85, 90, 90, 97, 104, 116, 123, 128, 128, 107, 78, 54, 30, 19, 23, 16]"
1713890484612377276,"[16, 28, 28, 14, 95, 437, 895, 959, 399, -130, -57, 80, -52, -90, -7, -2, -26, -7, 7, 0, 11, 38, 42, 38, 45, 57, 59, 54, 61, 78, 90, 104, 123, 138, 161, 185, 188, 195, 211, 190, 128, 97, 104, 45, -73, -116, -57, -19, -92, -176, -133, -52, -49, -73, -47, -11, -7, -4, 0, 4, 0, -35, -40, -14, -11, -4, 7, -2, 0, 9, 19, 21, 9]"
1713890485173445619,"[14, 42, 47, 35, 45, 57, 54, 42, 23, 26, 47, 52, 49, 59, 42, 35, 76, 97, 76, 69, 59, 38, 45, 54, 47, 52, 64, 66, 71, 73, 54, 28, 133, 516, 964, 954, 349, -128, -16, 114, -7, -21, 42, 19, 9, 49, 61, 54, 61, 61, 59, 71, 85, 85, 64, 49, 73, 104, 119, 140, 164, 183, 211, 238, 247, 245, 228, 199, 154, 104, 64, 30, -4]"
1713890485734539397,"[-28, -23, -23, -42, -42, -52, -78, -64, -42, -64, -90, -102, -102, -95, -80, -66, -64, -71, -69, -54, -45, -33, -26, -38, -35, -21, -11, -7, -9, -14, -9, 4, 11, 16, 19, 11, 16, 21, 23, 42, 61, 57, 54, 57, 45, 40, 33, 9, 2, 21, 30, 35, 47, 38, 7, 35, 318, 852, 1135, 676, -33, -116, 104, 23, -71, 4, 21, -4, 26, 45, 28, 33, 42]"
1713890486295612823,"[38, 45, 64, 64, 66, 85, 104, 116, 116, 119, 147, 185, 209, 230, 242, 247, 242, 218, 173, 119, 64, 21, 0, -9, -11, -9, -7, -7, -2, 9, 19, 16, 7, 7, 19, 28, 38, 42, 38, 19, -2, 7, 30, 26, 16, 26, 33, 42, 49, 47, 45, 47, 47, 52, 61, 59, 52, 42, 33, 35, 42, 38, 38, 28, 0, -9, 9, 14, 21, 30, 11, -11, -9]"
1713890486856681170,"[-4, -2, 0, 2, 4, 0, -23, -45, -88, -11, 471, 1192, 1340, 530, -228, -145, 35, -119, -147, -49, -64, -83, -49, -47, -57, -33, -16, -16, -4, 7, 9, 4, -7, 2, 26, 42, 66, 104, 135, 154, 176, 192, 199, 199, 178, 135, 83, 38, 11, 0, -11, -19, -21, -16, -14, -19, -21, -11, -4, 0, 9, 21, 26, 26, 30, 35, 45, 54, 57, 52, 49, 52, 61]"
1713890487417749513,"[69, 66, 64, 61, 61, 73, 80, 73, 54, 33, 38, 52, 54, 47, 26, 16, 30, 40, 42, 49, 52, 47, 54, 64, 49, 14, -4, 16, 47, 66, 78, 78, 47, 28, 40, 54, 45, 28, 19, 23, 35, 35, 2, -35, 159, 740, 1252, 966, 88, -285, -52, -30, -166, -107, -54, -99, -92, -49, -47, -45, -21, -16, -21, -4, 16, 26, 38, 47, 54, 80, 111, 133, 159]"
1713890487978817856,"[183, 204, 221, 230, 228, 202, 145, 80, 45, 26, -2, -35, -73, -90, -66, -52, -54, -61, -80, -88, -66, -35, -14, -21, -33, -19, 2, 0, -4, 14, 26, 23, 26, 16, 14, 40, 42, 11, 0, 19, 33, 28, 26, 33, 40, 49, 57, 57, 61, 61, 66, 78, 83, 80, 78, 83, 92, 107, 109, 107, 102, 107, 116, 111, 92, 102, 114, 97, 85, 85, 71, 69, 83]"
1713890488539886199,"[78, 71, 80, 78, 73, 80, 78, 73, 99, 123, 99, 52, 38, 38, 21, 0, -2, 0, -11, -19, -21, -23, -26, -49, -11, 335, 885, 1033, 447, -195, -180, 2, -97, -140, -59, -57, -73, -42, -33, -35, -11, 4, 7, 16, 26, 38, 52, 64, 73, 88, 104, 121, 149, 183, 202, 207, 209, 221, 228, 202, 149, 90, 42, 11, -7, -19, -28, -38, -40, -21, -11, -21, -2]"
1713890489100954542,"[16, -4, -21, -28, -38, -35, -45, -49, -28, -14, -16, -21, -14, -2, 0, 9, 16, 9, -2, -11, -7, 19, 26, 7, 0, 11, 26, 54, 76, 35, -2, 40, 80, 64, 49, 57, 73, 90, 83, 73, 80, 71, 64, 78, 73, 64, 78, 76, 66, 78, 88, 73, 49, 40, 38, 33, 38, 45, 69, 99, 73, 16, 9, 23, 14, -2, 4, 14, 0, -14, -4, -21, -57]"
1713890489662022885,"[111, 595, 1040, 909, 209, -202, -21, 42, -90, -49, -2, -64, -71, -28, -14, -21, -23, -9, 11, 19, 30, 54, 102, 128, 95, 83, 116, 130, 161, 218, 242, 238, 247, 252, 235, 204, 164, 119, 71, 28, -2, -11, -23, -42, -45, -38, -33, -21, -21, -33, -26, -2, 9, 7, 4, 14, 35, 35, 19, 30, 47, 23, -14, -16, -7, 4, 21, 21, 4, 2, 11, 21, 26]"
1713890490223091232,"[26, 11, -7, -7, 14, 21, -4, -33, -40, -33, -35, -38, -28, -35, -49, -49, -47, -47, -54, -61, -64, -57, -40, -16, -2, -4, -16, -33, -30, -16, -23, -26, -9, -9, -23, -33, -33, -54, -21, 330, 899, 1054, 468, -171, -161, 30, -66, -126, -52, -47, -66, -42, -26, -23, -23, -40, -40, -16, 7, 19, 23, 35, 59, 76, 95, 116, 130, 152, 183, 209, 228, 228, 216]"
1713890490784159575,"[197, 154, 95, 42, 7, -14, -26, -30, -38, -45, -54, -52, -40, -23, -19, -26, -26, -2, 9, -4, 9, 30, 23, 16, 19, 19, 30, 33, 9, 2, 16, 19, 11, 9, 14, 19, 9, 0, -11, -30, -33, -14, -4, -7, -9, -11, -26, -52, -54, -26, -2, 9, 21, 21, 7, -2, -4, -11, -4, 14, 23, 19, 19, 14, -19, 0, 295, 854, 1152, 695, -30, -135, 85]"
1713890491345227918,"[9, -90, -19, 2, -21, 4, 19, -14, -21, 11, 30, 35, 38, 35, 47, 64, 64, 71, 90, 97, 123, 166, 197, 218, 228, 226, 221, 207, 161, 104, 54, 9, -11, -16, -19, -21, -21, -23, -14, -16, -38, -40, -28, -26, -16, 0, 4, 2, -2, -7, 2, 23, 30, 33, 30, 19, 11, 19, 26, 23, 21, 21, 14, 2, 4, 2, -16, -21, -4, 4, 7, 7, 4]"
1713890491906296261,"[2, 4, 14, 19, 19, 11, 4, -4, -2, 4, 9, 11, 26, 35, 21, 2, 0, 2, 2, 11, 23, 26, 21, 21, -7, -26, 154, 647, 1128, 985, 221, -221, -47, 7, -130, -92, -33, -59, -57, -40, -47, -35, -14, 4, 14, 19, 28, 40, 54, 71, 88, 99, 121, 145, 166, 192, 211, 223, 238, 247, 228, 195, 149, 92, 45, 19, -2, -14, -16, -19, -19, -23, -23]"
1713890492467364604,"[-11, -4, -7, 4, 14, 11, 11, 4, -11, -9, 9, 11, 9, 16, 33, 52, 35, 11, 21, 23, 4, 0, 14, 9, -28, -61, -66, -73, -66, -49, -66, -85, -57, -28, -42, -52, -35, -30, -26, -11, -11, -19, -14, -7, 2, 11, 11, 26, 52, 66, 64, 59, 49, 33, 28, 35, 40, 49, 54, 52, 45, 26, 4, 135, 595, 1102, 1028, 304, -178, -14, 85, -64, -64]"
1713890493028432947,"[4, -16, -21, 11, 0, -35, -28, -4, 7, 14, 21, 26, 45, 71, 92, 104, 88, 88, 128, 164, 171, 171, 166, 166, 173, 164, 121, 69, 30, 9, 0, -7, -9, -11, -16, -9, 7, 14, 21, 30, 33, 33, 35, 49, 61, 54, 52, 61, 69, 71, 80, 80, 61, 49, 52, 59, 64, 57, 49, 59, 69, 69, 76, 78, 71, 76, 85, 90, 95, 92, 83, 78, 80]"
1713890493589501294,"[85, 88, 78, 69, 66, 59, 52, 35, -9, -52, -52, -47, -61, -64, -59, -54, -33, -2, 11, 14, -9, -33, -26, -7, 0, 2, 0, -2, 4, 11, -7, -14, 178, 652, 1075, 883, 140, -223, -11, 33, -102, -54, 4, -30, -45, -30, -19, 0, 7, 7, 14, 26, 33, 52, 71, 80, 83, 92, 109, 135, 159, 178, 197, 207, 209, 216, 209, 171, 119, 61, 14, -14, -35]"
1713890494150569637,"[-54, -80, -109, -121, -119, -109, -90, -80, -76, -64, -61, -73, -73, -57, -47, -40, -28, -23, -21, -14, -7, -2, 2, 2, 7, 16, 19, 23, 28, 21, 23, 35, 35, 33, 42, 35, 23, 28, 33, 28, 30, 30, 33, 47, 71, 85, 73, 49, 38, 28, 28, 30, 23, 11, 16, 11, -2, -19, -64, -40, 288, 873, 1159, 649, -109, -192, 45, -59, -188, -111, -80, -102, -69]"
1713890494711637980,"[-40, -47, -42, -21, -9, 7, 19, 19, 9, 16, 42, 64, 73, 95, 126, 157, 185, 211, 218, 214, 207, 192, 154, 107, 61, 21, -11, -30, -30, -19, -19, -26, -21, -4, 9, 16, 21, 21, 23, 33, 40, 49, 54, 42, 40, 54, 61, 64, 66, 57, 54, 61, 69, 71, 71, 64, 64, 71, 61, 33, 7, -4, 4, 21, 28, 30, 33, 30, 33, 42, 49, 52, 52]"
1713890495272706323,"[45, 38, 42, 69, 99, 104, 92, 80, 66, 61, 73, 49, 4, 4, 30, 30, 23, 0, -59, 21, 437, 975, 1014, 330, -252, -135, 16, -121, -135, -59, -83, -90, -49, -40, -40, -30, -26, -16, 7, 23, 26, 30, 45, 61, 80, 107, 128, 140, 157, 171, 176, 185, 178, 145, 116, 88, 45, 9, -21, -49, -59, -52, -47, -45, -35, -28, -26, -16, -4, 7, 9, 7, 11]"
1713890495833774666,"[23, 35, 35, 33, 35, 42, 45, 49, 45, 33, 30, 38, 45, 49, 35, 16, 23, 35, 35, 40, 47, 47, 47, 52, 57, 59, 57, 57, 61, 64, 66, 71, 69, 69, 76, 80, 78, 83, 78, 66, 49, 33, 30, 35, 26, 9, 0, 9, 11, -14, -40, -38, -30, -23, -11, -11, -16, -4, 4, -19, -52, 49, 461, 997, 1052, 383, -195, -85, 61, -73, -90, -11, -40]"
1713890496394843009,"[-73, -33, -9, -16, -7, 0, -9, -7, 14, 28, 40, 54, 64, 80, 107, 130, 147, 169, 192, 211, 223, 223, 214, 195, 159, 114, 83, 52, 21, -2, -9, -14, -19, -21, -14, -9, 0, 2, -11, -26, -16, -7, -4, 7, 23, 30, 21, 16, 30, 47, 52, 47, 42, 47, 57, 61, 61, 64, 59, 57, 61, 78, 85, 64, 40, 42, 54, 61, 69, 71, 59, 57, 59]"
1713890496955911356,"[49, 47, 45, 16, -2, 23, 52, 52, 40, 11, -16, -14, -2, -4, -7, -7, -2, 9, 14, -7, -40, 71, 504, 1014, 975, 278, -223, -78, 33, -104, -116, -66, -92, -90, -49, -28, -21, -9, -9, -11, 7, 26, 42, 61, 64, 61, 85, 121, 147, 169, 183, 197, 216, 230, 226, 204, 169, 121, 78, 45, 19, -4, -21, -23, -16, -4, 2, 4, 2, 7, 23, 40, 42]"
1713890497516979699,"[45, 47, 52, 59, 69, 73, 71, 66, 66, 71, 83, 80, 54, 30, 23, 28, 38, 42, 42, 40, 47, 54, 54, 33, 9, 14, 26, 26, 35, 54, 78, 90, 88, 80, 59, 49, 52, 38, 28, 40, 47, 45, 42, 23, -21, 9, 316, 847, 1052, 516, -152, -169, 23, -78, -135, -49, -52, -73, -38, -21, -28, -7, 7, 11, 26, 38, 47, 61, 71, 85, 102, 114, 140]"
1713890498078048042,"[166, 183, 207, 223, 216, 204, 192, 166, 121, 64, 7, -19, -30, -47, -47, -52, -76, -69, -45, -45, -38, -28, -23, -11, 2, 7, 11, 14, 26, 40, 45, 45, 47, 47, 47, 57, 54, 33, 26, 35, 45, 49, 54, 52, 45, 49, 64, 73, 71, 71, 69, 66, 76, 80, 76, 69, 71, 80, 104, 128, 126, 104, 83, 71, 73, 80, 78, 73, 73, 66, 57, 59, 38]"
1713890498639116385,"[40, 285, 790, 1092, 702, -7, -180, 11, -52, -166, -95, -66, -119, -109, -80, -85, -83, -69, -66, -59, -40, -21, -2, 9, 11, 26, 54, 76, 85, 97, 116, 140, 157, 161, 164, 147, 102, 54, 23, -2, -28, -42, -54, -49, -35, -30, -23, -19, -21, -14, 2, 11, 16, 19, 14, 21, 38, 45, 47, 47, 30, 23, 38, 49, 47, 42, 42, 52, 57, 59, 64, 59, 47]"
1713890499200184728,"[42, 28, 26, 35, 30, 23, 33, 45, 52, 42, 16, 11, 28, 38, 40, 45, 45, 42, 42, 35, 30, 38, 35, 28, 42, 73, 97, 107, 90, 69, 64, 66, 61, 47, 38, 45, 49, 54, 57, 23, -23, 95, 521, 999, 954, 273, -209, -66, 33, -99, -95, -40, -73, -73, -33, -28, -28, -7, 4, 9, 21, 38, 47, 57, 69, 66, 52, 64, 99, 119, 128, 145, 166]"
1713890499761283593,"[188, 195, 185, 166, 135, 95, 42, -7, -35, -40, -59, -71, -54, -47, -45, -30, -23, -19, -2, 7, 11, 19, 26, 35, 40, 40, 47, 52, 54, 61, 59, 54, 66, 69, 61, 66, 69, 61, 73, 80, 71, 69, 71, 66, 66, 73, 73, 71, 73, 78, 85, 83, 83, 85, 80, 78, 92, 92, 73, 47, 35, 52, 64, 57, 54, 52, 40, 33, 40, 45, 40, 49, 66]"
1713890500322351936,"[64, 42, 7, -26, -49, -54, -42, -35, -35, -28, -23, -21, -30, -54, 38, 423, 933, 997, 380, -178, -90, 57, -78, -97, -11, -21, -38, -14, 2, 11, 26, 38, 52, 45, 33, 57, 83, 90, 99, 119, 130, 149, 188, 218, 226, 228, 233, 240, 242, 226, 176, 99, 30, 0, -9, -21, -30, -40, -40, -26, -11, -4, 0, 0, 2, 2, 2, 9, 16, 11, 21, 33, 40]"
1713890500883420279,"[45, 42, 38, 40, 49, 54, 52, 42, 40, 49, 57, 59, 59, 38, 16, 28, 42, 45, 52, 42, 30, 45, 61, 54, 40, 30, 30, 42, 47, 47, 47, 54, 80, 99, 95, 73, 49, 28, 28, 38, 42, 35, 21, 7, -21, -64, -90, -28, 280, 783, 978, 483, -154, -173, 30, -66, -149, -80, -64, -73, -45, -33, -30, -9, 9, 21, 30, 38, 49, 66, 83, 97, 111]"
1713890501444488622,"[135, 159, 183, 214, 242, 254, 257, 261, 254, 228, 164, 85, 42, 19, -14, -40, -57, -54, -40, -38, -33, -16, -9, -2, 11, 21, 26, 33, 38, 45, 57, 59, 59, 66, 69, 69, 66, 40, 23, 40, 47, 40, 47, 59, 61, 64, 61, 49, 42, 47, 52, 49, 54, 66, 66, 61, 66, 71, 73, 78, 85, 85, 83, 80, 85, 92, 92, 80, 66, 64, 71, 76, 73]"
1713890502005587483,"[69, 59, 49, 45, 38, 26, 11, -21, -57, -54, -19, 9, 16, 14, 7, -4, -2, 4, 4, 7, 11, 21, 30, 33, 2, -40, 88, 583, 1194, 1213, 399, -252, -104, 45, -116, -114, -30, -66, -83, -40, -28, -30, -16, -4, 4, 21, 35, 42, 49, 66, 83, 97, 119, 147, 166, 180, 204, 228, 238, 238, 223, 204, 178, 133, 88, 52, 21, 0, 0, 9, 2, -19, -28]"
1713890502566655826,"[-14, -2, 7, 16, 14, -11, -23, 2, 16, 14, 19, 11, 11, 28, 38, 35, 30, 28, 30, 33, 35, 33, 23, 2, -19, -19, -11, -16, -33, -57, -59, -47, -40, -33, -33, -42, -35, -19, -16, -19, -14, -14, -7, 4, 14, 16, 14, 14, 23, 30, 38, 45, 42, 42, 49, 59, 61, 61, 59, 54, 59, 57, 40, 40, 49, 49, 45, 57, 71, 66, 57, 61, 76]"
1713890503127724169,"[83, 80, 76, 78, 97, 123, 128, 109, 71, 42, 49, 61, 61, 61, 61, 38, 11, 2, -21, 30, 388, 964, 1180, 616, -97, -130, 64, -45, -109, -19, -11, -40, -7, 9, 0, 19, 42, 38, 38, 57, 71, 76, 92, 102, 109, 126, 140, 152, 171, 188, 202, 214, 204, 180, 154, 119, 66, 14, -26, -52, -69, -76, -78, -80, -73, -61, -54, -49, -38, -23, -21, -19, -9]"
1713890503688797603,"[-4, 0, 9, 16, 21, 9, -9, -19, -33, -40, -19, -11, -23, -21, -7, 0, 7, 7, 11, 21, 28, 28, 33, 35, 38, 49, 57, 54, 54, 59, 66, 71, 71, 71, 73, 76, 76, 83, 88, 85, 83, 85, 90, 85, 73, 59, 57, 59, 66, 73, 76, 71, 69, 71, 78, 85, 85, 80, 83, 83, 83, 92, 92, 80, 76, 83, 99, 121, 133, 123, 102, 85, 80]"
1713890504249871033,"[69, 42, 28, 21, 19, 35, 47, 21, -19, 99, 535, 1054, 1054, 366, -197, -102, 28, -97, -109, -35, -59, -80, -54, -57, -71, -64, -49, -38, -26, -11, 9, 16, 0, 4, 52, 88, 102, 142, 180, 128, 73, 164, 278, 266, 202, 116, -26, -85, -33, -42, -97, -88, -64, -38, -4, -49, -97, -38, -7, -40, -16, 30, 26, 49, 85, 9, -73, -61, -33, 16, 54, 49, 76]"
1713890504810959720,"[92, 19, -14, 76, 83, -11, 19, 102, 95, 85, 76, 45, 52, 64, 30, 42, 107, 90, 40, 49, 76, 102, 114, 80, 64, 78, 64, 52, 73, 73, 64, 71, 66, 71, 85, 97, 145, 159, 107, 92, 123, 166, 192, 88, -28, 9, 95, 97, 61, 80, 83, 209, 706, 1164, 883, 123, -104, 171, 119, -109, -116, -119, -119, 7, 61, -2, -30, -11, -16, -19, -4, 23, 69]"
1713890505372028063,"[66, 7, -19, 42, 107, 154, 152, 130, 176, 176, 145, 188, 188, 119, 95, 33, -85, -102, -38, -57, -142, -149, -92, -80, -73, -21, -33, -92, -66, -30, -57, -28, 40, 21, -28, -19, 14, 14, 0, 9, 28, 26, 26, 38, 26, 14, 28, 40, 33, 14, -9, -14, -16, -26, -19, -7, 0, 16, 9, -11, 0, 21, 14, 16, 33, 33, 28, 33, 38, 40, 49, 49, 40]"
1713890505933096406,"[61, 97, 123, 133, 99, 23, -26, 4, 30, 11, 7, 0, -14, -9, -21, -45, 92, 580, 1166, 1156, 366, -230, -90, 26, -128, -130, -52, -69, -88, -71, -80, -85, -59, -45, -47, -42, -30, -16, 4, 16, 16, 14, 33, 64, 64, 76, 123, 145, 154, 171, 164, 138, 92, 21, -26, -40, -57, -71, -73, -78, -76, -57, -42, -33, -26, -33, -23, 0, 9, 7, 9, 16, 7]"
1713890506494164749,"[4, 26, 35, 23, 23, 35, 42, 47, 52, 35, 9, 21, 40, 40, 40, 42, 42, 49, 59, 61, 69, 64, 61, 69, 78, 80, 80, 76, 73, 83, 90, 80, 64, 57, 59, 69, 59, 33, 26, 30, 33, 42, 49, 49, 54, 57, 54, 59, 71, 73, 69, 66, 64, 71, 99, 123, 121, 107, 95, 83, 78, 83, 78, 66, 54, 57, 71, 69, 38, 2, 142, 616, 1166]"
1713890507055233096,"[1140, 368, -207, -54, 69, -88, -102, -57, -92, -102, -73, -69, -66, -54, -42, -35, -21, -4, 4, 14, 30, 42, 52, 59, 80, 114, 145, 169, 192, 209, 197, 171, 152, 116, 59, 14, -21, -47, -59, -66, -66, -61, -57, -47, -38, -33, -21, -9, -7, 0, 9, 14, 19, 28, 23, 11, 16, 23, 23, 23, 26, 35, 40, 38, 35, 38, 42, 47, 49, 49, 47, 42, 47]"
1713890507616301439,"[54, 57, 54, 54, 57, 57, 57, 57, 52, 42, 28, 23, 28, 14, 0, 4, 11, 16, 23, 21, 14, 19, 11, -11, -14, 2, -2, -7, 4, 16, 23, 26, 21, 26, 33, 30, 38, 57, 64, 69, 85, 85, 61, 64, 73, 59, 42, 40, 47, 49, 52, 47, 28, 16, 190, 678, 1109, 887, 173, -149, 35, 59, -78, -35, 38, -2, -23, 0, 11, 9, 21, 40, 35]"
1713890508177369782,"[19, 26, 35, 28, 38, 49, 45, 33, 54, 102, 138, 166, 180, 185, 188, 159, 99, 45, -14, -76, -119, -130, -135, -142, -140, -138, -135, -130, -126, -104, -95, -107, -90, -64, -52, -38, -26, -30, -49, -45, -19, -23, -26, -21, -23, -9, 7, -7, -16, -4, 2, 4, 26, 35, 9, -9, 7, 28, 19, 9, 28, 64, 102, 92, 54, 47, 26, -21, -11, 16, 14, 16, 16]"
1713890508738458473,"[7, 9, -9, 26, 342, 868, 1042, 447, -235, -192, 28, -102, -152, -59, -69, -59, -28, -88, -114, -52, -9, -2, -2, 7, 59, 90, 42, 30, 88, 83, 66, 140, 207, 228, 266, 297, 261, 223, 240, 218, 126, 57, 26, -2, -28, -42, -38, -28, -33, 0, 66, 59, 9, 7, 0, -16, 9, 19, 19, 30, 16, 2, 9, -2, -11, -7, -11, 2, 19, -14, -14, 21, -26]"
1713890509299531903,"[-92, -52, 19, 11, -30, -4, 45, -16, -85, -16, 40, -2, -14, 19, 33, 45, 40, 19, 33, 66, 73, 64, 99, 130, 52, 9, 114, 128, 7, 26, 133, 78, 9, 64, 52, 38, 368, 1025, 1440, 992, 73, -192, 64, 52, -54, 14, 35, 9, 26, 28, 21, 38, 42, 40, 47, 61, 73, 85, 95, 99, 109, 130, 154, 178, 192, 183, 185, 214, 235, 235, 218, 173, 114]"
1713890509860605329,"[71, 49, 28, 0, -28, -45, -47, -49, -21, 7, -40, -57, -7, 2, 7, 26, 16, 9, 19, 38, 59, 57, 40, 45, 57, 52, 49, 52, 40, 45, 61, 59, 47, 47, 35, 9, 11, 33, 35, 26, 26, 23, 9, 11, 30, 30, 19, 30, 49, 52, 59, 66, 57, 57, 69, 69, 71, 66, 38, 42, 66, 64, 61, 69, 80, 104, 121, 109, 83, 73, 83, 85, 83]"
1713890510421673676,"[90, 76, 52, 59, 66, 19, 19, 311, 942, 1404, 1002, 76, -202, 61, 16, -121, -33, 14, -26, -9, 14, 9, 26, 47, 49, 49, 59, 66, 80, 95, 104, 114, 121, 123, 138, 176, 207, 218, 230, 245, 252, 242, 211, 161, 114, 76, 49, 33, 16, -2, -30, -47, -28, -7, -9, -7, 4, 9, 14, 23, 28, 28, 28, 21, 11, 0, -4, 4, 7, -4, -9, -7, -19]"
1713890510982752193,"[-28, -21, -14, -11, -7, -7, -4, 0, 0, 4, -4, -33, -35, -19, -16, -11, 2, 4, 7, 16, 19, 23, 26, 23, 14, 9, 19, 28, 30, 30, 38, 40, 40, 40, 47, 69, 92, 104, 95, 76, 61, 57, 45, 19, 19, 35, 38, 35, 42, 16, -14, 173, 699, 1221, 1073, 252, -223, -23, 45, -102, -64, 4, -33, -35, 0, 4, 9, 23, 30, 40, 47, 57, 73]"
1713890511543840880,"[83, 85, 95, 119, 140, 159, 180, 197, 195, 199, 223, 235, 223, 192, 145, 80, 30, 9, -11, -35, -42, -35, -26, -19, -9, -11, -9, 4, 19, 23, 23, 23, 23, 30, 30, 9, -4, 0, 7, 14, 26, 33, 30, 16, 7, 16, 21, 9, -4, -7, -9, -11, -9, -16, -28, -30, -23, -16, -7, 4, 7, -2, 0, 9, 11, 19, 21, 11, 16, 33, 38, 38, 35]"
1713890512104909223,"[28, 30, 40, 52, 78, 95, 78, 54, 52, 54, 45, 23, 7, 14, 30, 35, 40, 33, -7, -7, 233, 776, 1209, 930, 121, -202, 40, 45, -123, -92, -38, -64, -49, -11, -14, -21, -2, 16, 14, 9, 19, 28, 40, 61, 83, 102, 121, 135, 157, 185, 214, 230, 235, 235, 221, 192, 154, 104, 52, 16, -4, -11, -14, -16, -16, -11, -4, 0, 9, 19, 14, 4, 7]"
1713890512665977566,"[19, 26, 30, 33, 35, 33, 38, 45, 28, 9, 19, 28, 28, 30, 33, 33, 38, 40, 42, 52, 47, 19, 9, 21, 28, 30, 33, 28, 14, 4, -4, -2, 0, -4, -7, 7, 26, 19, 2, -7, -16, -26, -21, -14, -9, -2, 2, 2, 0, -23, -52, 97, 573, 1073, 985, 240, -230, -38, 52, -99, -76, -11, -59, -57, -11, -11, -16, 2, 14, 21, 35, 49, 54]"
1713890513227076427,"[61, 78, 97, 111, 126, 149, 173, 199, 226, 242, 245, 230, 202, 166, 99, 23, -14, -30, -57, -66, -71, -83, -85, -73, -64, -49, -33, -23, -23, -19, -9, 4, 19, 26, 23, 21, 30, 40, 45, 47, 45, 45, 52, 57, 64, 64, 61, 61, 69, 69, 59, 47, 40, 30, 33, 45, 42, 26, 11, 4, 2, 11, 19, 14, 7, 14, 21, 26, 33, 28, 16, 21, 33]"
1713890513788144774,"[35, 52, 64, 45, 33, 40, 9, -30, -26, -11, -16, -11, -11, -9, -7, -33, -66, 73, 554, 1142, 1161, 390, -221, -73, 71, -83, -90, -14, -38, -40, 7, 16, 2, 9, 28, 40, 52, 61, 64, 69, 88, 107, 121, 130, 133, 152, 190, 216, 228, 238, 235, 228, 216, 180, 130, 85, 49, 21, 9, 9, 7, 7, 4, 7, 19, 30, 35, 35, 33, 40, 54, 47, 21]"
1713890514349213117,"[7, 14, 11, 0, 4, 19, 19, 19, 23, 19, 14, 9, -4, -11, -4, -2, -9, -14, -23, -35, -30, -19, -9, -7, -14, -14, -4, -2, 4, 16, 21, 16, 16, 26, 28, 11, 4, 16, 21, 28, 40, 42, 42, 47, 47, 52, 78, 97, 102, 97, 80, 66, 66, 69, 71, 78, 76, 76, 80, 71, 45, 40, 235, 728, 1142, 895, 130, -214, 0, 33, -104, -61, -2]"
1713890514910281460,"[-33, -26, 11, 16, 14, 30, 42, 49, 57, 42, 33, 59, 80, 88, 107, 119, 133, 161, 185, 199, 211, 218, 221, 221, 199, 147, 78, 30, 9, -7, -21, -28, -28, -28, -16, -2, 2, 2, 4, 11, 26, 33, 35, 35, 38, 42, 45, 52, 57, 54, 52, 57, 61, 54, 40, 35, 21, -9, -16, -9, -16, -28, -33, -38, -33, -23, -26, -30, -26, -11, -4, 0, 2]"
1713890515471349803,"[-2, -2, 9, 19, 23, 26, 4, -9, 2, 19, 21, 23, 19, 16, 28, 33, 40, 54, 57, 54, 57, 47, 35, 35, 30, 33, 42, 52, 59, 59, 42, 11, 66, 383, 899, 1097, 585, -66, -88, 116, 21, -54, 16, 26, 7, 33, 47, 40, 30, 4, 0, 33, 49, 47, 52, 69, 92, 107, 128, 145, 154, 178, 211, 228, 230, 233, 228, 216, 190, 147, 97, 42, 7]"
1713890516032443581,"[-2, -7, -14, -11, -11, -19, -11, -2, -14, -35, -49, -40, -21, -11, -9, -4, 0, 0, 7, 19, 21, 16, 16, 23, 19, 9, 11, 14, 7, 7, 14, 9, -7, -14, -21, -30, -26, -14, -9, -16, -38, -71, -83, -69, -61, -61, -52, -42, -42, -33, -28, -28, -9, 28, 47, 40, 23, 7, 4, 9, 11, 19, 21, 23, 30, 30, 11, 9, 188, 647, 1030, 797, 83]"
1713890516593517007,"[-221, 9, 47, -90, -47, 7, -35, -45, -19, -4, 4, 19, 28, 33, 47, 59, 66, 83, 99, 111, 130, 152, 171, 199, 223, 235, 254, 266, 264, 254, 223, 152, 88, 40, -26, -76, -71, -66, -69, -59, -54, -52, -45, -30, -11, -2, -4, 2, 9, 16, 26, 33, 35, 35, 40, 49, 57, 49, 42, 45, 45, 45, 47, 38, 28, 30, 21, 14, 21, 26, 21, 21, 19]"
